time (s)	magX	magY	magZ
1577.063992	400.380463	-120.951500	-369.417328
1577.067330	402.718262	-121.652840	-377.073639
1577.070668	405.231415	-122.178841	-383.502625
1577.074385	406.926331	-123.055519	-390.808289
1577.077746	409.790192	-123.172417	-398.172424
1577.081014	411.777313	-122.880196	-405.302765
1577.084327	413.998230	-123.172417	-412.783783
1577.087585	416.043823	-122.880196	-420.615448
1577.091302	418.381622	-123.873756	-429.382233
1577.094669	420.193451	-123.698418	-437.915283
1577.097949	422.355927	-124.107536	-446.506744
1577.101252	424.284607	-124.282875	-454.922882
1577.104587	426.563995	-124.458214	-465.559906
1577.107887	428.375793	-124.808876	-474.151367
1577.111238	430.012268	-124.575096	-483.911743
1577.114501	431.824066	-124.341316	-495.074799
1577.118284	433.285217	-124.750450	-504.893646
1577.121557	434.863220	-123.756874	-515.472229
1577.124870	436.265930	-123.873756	-526.401489
1577.128123	437.960846	-122.997078	-538.382812
1577.131396	438.720612	-123.464638	-548.435364
1577.135178	440.006409	-123.347755	-559.890686
1577.138454	440.590881	-123.406197	-571.053772
1577.141723	441.292206	-122.354179	-583.210388
1577.145049	442.461121	-121.828163	-594.724121
1577.148337	442.694885	-121.009941	-605.478088
1577.151672	443.104034	-120.367027	-617.634705
1577.155346	443.162445	-119.373466	-629.615967
1577.158612	443.045593	-118.496788	-640.662170
1577.161923	442.987122	-118.029213	-652.994141
1577.165181	442.344238	-116.977211	-664.449402
1577.168927	442.052002	-116.042091	-676.606079
1577.172639	441.467529	-115.223839	-689.054932
1577.175972	440.473969	-113.821159	-700.334839
1577.179325	439.188202	-112.710701	-713.426636
1577.182638	437.843933	-111.717125	-725.174133
1577.185969	436.149017	-109.729988	-736.980103
1577.189332	434.220337	-108.327309	-748.669189
1577.192635	432.350067	-106.924599	-760.475159
1577.195975	429.603149	-105.463478	-772.456421
1577.199301	427.732880	-103.534782	-784.846863
1577.202638	424.693756	-101.956764	-796.419006
1577.205965	421.946808	-99.852730	-808.575623
1577.209301	418.498535	-97.982460	-820.907654
1577.212633	414.874908	-96.696663	-832.596741
1577.215965	410.491516	-93.949745	-845.630066
1577.219297	406.517242	-92.605492	-857.435974
1577.222637	401.432495	-89.858559	-869.242004
1577.225967	396.230865	-86.994743	-882.099915
1577.229301	391.087677	-85.007607	-893.321411
1577.232644	385.593781	-81.909996	-906.413147
1577.236401	379.749268	-78.753944	-917.576294
1577.239743	372.618927	-76.007019	-929.382202
1577.243059	365.430145	-73.318527	-940.954346
1577.246387	358.416687	-69.402687	-952.409729
1577.249721	350.877258	-66.129753	-963.397400
1577.253054	342.519562	-62.623032	-975.670959
1577.256403	333.869659	-59.408531	-985.665100
1577.259713	325.161316	-55.200462	-997.412537
1577.263059	315.634705	-51.518410	-1006.413147
1577.266404	305.874329	-47.485680	-1016.407349
1577.269736	296.055511	-43.043839	-1025.875488
1577.273546	285.827576	-39.069550	-1034.057861
1577.276830	275.248993	-34.277031	-1043.584473
1577.280138	264.553467	-30.068962	-1051.474609
1577.283477	252.572189	-25.919342	-1058.780273
1577.286826	241.876678	-21.068382	-1066.202881
1577.290155	231.122742	-17.094093	-1072.164307
1577.293571	218.732330	-11.132671	-1078.768555
1577.296878	206.984802	-6.866158	-1084.262451
1577.300173	194.535950	-2.424313	-1089.171875
1577.303477	182.320862	3.069550	-1093.496826
1577.307257	169.404434	7.336060	-1097.588013
1577.310626	156.312683	12.245468	-1101.328491
1577.313975	144.331390	16.921099	-1103.374146
1577.317314	131.473404	21.830507	-1106.296387
1577.320651	119.258331	26.915253	-1107.523682
1577.323945	106.400352	31.824663	-1108.108154
1577.327244	93.308594	36.266510	-1108.751099
1577.330641	80.450615	41.643482	-1108.751099
1577.333997	67.709526	46.436001	-1109.744629
1577.337348	54.383987	51.754528	-1108.283447
1577.340637	41.175339	56.488602	-1108.108154
1577.343987	28.142023	60.930450	-1105.711914
1577.347767	14.991819	65.898300	-1102.789673
1577.351084	1.783169	70.690826	-1099.633667
1577.354403	-10.841030	75.191116	-1096.828247
1577.357692	-23.640560	79.925186	-1092.795532
1577.360955	-36.790768	84.425476	-1088.528931
1577.364288	-49.590298	89.218002	-1083.911865
1577.367621	-62.448269	93.835182	-1079.002441
1577.371362	-75.540039	97.809464	-1073.274780
1577.374739	-88.690231	102.309761	-1067.254883
1577.378030	-101.431320	107.160721	-1060.650513
1577.381383	-113.704849	111.193451	-1051.942139
1577.384646	-126.153717	116.278198	-1045.220947
1577.387936	-139.771469	120.252480	-1037.155518
1577.391218	-151.694321	124.402107	-1028.388672
1577.394936	-163.266510	127.850372	-1019.329590
1577.398286	-175.130905	132.116882	-1009.218567
1577.401588	-186.586197	136.441833	-999.925781
1577.404966	-197.573944	139.714783	-989.522522
1577.408237	-208.210983	144.039734	-978.476318
1577.411541	-219.783157	146.436005	-968.774414
1577.414840	-229.718857	150.234955	-957.552856
1577.418594	-239.829910	153.566330	-946.565125
1577.421901	-249.882523	156.371719	-934.876038
1577.425195	-258.941559	159.586212	-923.362305
1577.428519	-267.825256	161.514908	-911.790161
1577.431770	-277.001160	164.203384	-899.984253
1577.435524	-284.891296	167.184113	-888.821106
1577.439276	-292.547638	168.879013	-876.489136
1577.442604	-300.145538	171.158386	-864.157166
1577.445946	-307.158966	173.087067	-852.000610
1577.449323	-313.880188	175.600250	-840.253052
1577.452611	-320.893646	177.061371	-828.856262
1577.455960	-326.796600	177.762726	-816.874939
1577.459277	-332.816498	179.808289	-805.653381
1577.462607	-338.018127	181.444763	-793.730591
1577.465941	-343.336670	181.912323	-781.983032
1577.469280	-347.544708	183.198120	-770.703125
1577.472610	-352.278778	184.367035	-759.481567
1577.475943	-356.253052	184.600830	-747.734070
1577.479271	-360.519592	185.535950	-736.395691
1577.482608	-364.201660	186.997070	-726.401489
1577.485937	-368.059021	187.406189	-714.653992
1577.489274	-371.682648	187.756866	-703.374023
1577.492604	-375.130951	188.224426	-692.152527
1577.495935	-377.468719	188.399750	-680.872559
1577.499297	-380.040314	188.458221	-669.475708
1577.503052	-383.196411	188.516663	-658.429565
1577.506373	-384.949738	188.925781	-647.500244
1577.509704	-386.410858	188.633545	-636.044983
1577.513038	-388.807159	188.691986	-624.472778
1577.516363	-390.326691	188.516663	-614.011047
1577.519689	-391.846283	187.932190	-602.906494
1577.523032	-393.599670	187.581543	-592.386292
1577.526368	-395.294586	186.997070	-581.573914
1577.529720	-395.937500	187.406189	-571.404419
1577.533045	-397.807739	186.646393	-560.884277
1577.536413	-397.457031	185.828156	-549.662781
1577.540198	-398.099945	185.769714	-539.610168
1577.543457	-398.450623	184.834595	-529.849792
1577.546784	-398.684418	184.542389	-518.745178
1577.550112	-398.450623	183.665710	-510.212189
1577.553461	-398.392151	183.081238	-500.101135
1577.556807	-398.567505	181.853882	-490.165436
1577.560198	-398.450623	181.678558	-480.229706
1577.563512	-398.567505	180.860321	-470.235535
1577.566855	-397.924622	179.866760	-462.988342
1577.570104	-397.398621	178.814728	-453.403290
1577.573885	-396.463501	177.996490	-445.045624
1577.577310	-395.236115	176.593811	-437.330811
1577.580651	-394.534790	175.366455	-428.856232
1577.583967	-393.482788	174.840454	-420.849243
1577.587295	-392.489197	173.087067	-413.485107
1577.590613	-392.080078	172.677963	-406.296326
1577.593903	-389.683838	171.684387	-399.808899
1577.597276	-388.865570	170.223267	-392.094116
1577.600612	-387.579773	169.697250	-385.197540
1577.603993	-386.293976	168.294556	-379.820587
1577.607282	-385.183533	167.768555	-374.502075
1577.610628	-384.482208	166.248993	-368.014618
1577.614428	-382.436615	164.729401	-362.053192
1577.617713	-381.033905	163.794281	-356.208649
1577.621063	-380.274109	162.859146	-350.656342
1577.624376	-378.696106	161.398010	-344.461121
1577.627698	-377.410278	160.521332	-338.967285
1577.631049	-375.832275	159.469299	-334.291656
1577.634337	-374.078888	158.534180	-329.206909
1577.637662	-372.267120	157.306839	-324.297516
1577.641390	-371.039734	156.956161	-319.271179
1577.644672	-369.637054	155.378143	-314.127991
1577.648015	-367.474609	154.793686	-308.984802
1577.651349	-365.428986	153.157211	-304.309174
1577.654641	-365.195221	151.988312	-299.224457
1577.657946	-363.324982	150.994736	-295.600830
1577.661246	-361.571594	150.702515	-290.282288
1577.665042	-359.701355	149.416718	-286.132660
1577.668307	-357.831116	148.364700	-281.749268
1577.671571	-357.188171	147.195801	-278.008789
1577.674889	-355.668640	146.319107	-273.040924
1577.678192	-353.856812	145.617767	-268.365295
1577.681510	-351.869690	144.565750	-264.332550
1577.685225	-350.583862	143.513733	-260.475159
1577.688481	-349.531860	142.578613	-257.143768
1577.691736	-347.603149	141.760376	-252.994141
1577.695043	-345.499146	140.942139	-249.604340
1577.698769	-344.213318	140.007019	-245.980698
1577.702112	-343.687317	138.954987	-242.532425
1577.705377	-341.174164	138.428986	-239.025696
1577.708634	-340.239044	137.727646	-236.161880
1577.711948	-338.836365	136.149628	-233.590302
1577.715672	-337.199890	136.032730	-230.726471
1577.719251	-335.212769	135.039154	-227.745758
1577.722577	-334.160736	133.811798	-224.589722
1577.725911	-333.284058	133.052017	-222.894806
1577.729250	-331.822937	132.584442	-219.797195
1577.732582	-331.180023	132.058441	-216.232025
1577.735920	-329.952667	131.415543	-215.355331
1577.739243	-328.959076	130.597321	-213.835770
1577.742587	-328.491516	130.363525	-211.556396
1577.745916	-327.088837	129.662186	-209.978363
1577.749246	-326.036835	128.843948	-207.465225
1577.752582	-325.043243	128.201050	-206.939209
1577.755935	-324.634155	127.791931	-204.835175
1577.759283	-323.406799	127.149033	-203.257156
1577.762580	-322.530121	126.447685	-202.146698
1577.765915	-321.478088	125.687904	-200.568665
1577.769665	-321.594971	125.804794	-198.815308
1577.773029	-320.893646	125.278778	-198.581528
1577.776335	-320.367615	125.103447	-196.652832
1577.779659	-319.549408	123.934540	-196.477493
1577.782996	-318.906494	123.876091	-194.315018
1577.786330	-318.205139	122.940971	-193.438339
1577.789702	-317.562256	123.174751	-192.795425
1577.793023	-317.328491	122.707184	-192.386322
1577.796390	-316.685577	122.531853	-190.808304
1577.799670	-316.451782	121.304497	-189.347153
1577.803040	-316.101135	121.421387	-188.412033
1577.806760	-315.049103	121.070717	-186.950897
1577.810094	-314.639984	120.720047	-187.535355
1577.813434	-314.113983	120.135590	-186.132675
1577.816806	-313.237305	120.661606	-184.846863
1577.820180	-313.295746	119.843369	-184.379303
1577.823486	-312.360626	119.668030	-183.619507
1577.826781	-312.068390	119.142021	-183.210403
1577.830084	-311.659271	118.732903	-181.924606
1577.833421	-311.074799	118.440674	-181.573929
1577.836771	-311.308594	118.791344	-180.697250
1577.840585	-311.016388	118.382233	-179.528351
1577.843922	-311.016388	118.265343	-179.820572
1577.847290	-310.665710	117.739326	-178.651672
1577.850567	-310.081238	117.447105	-179.294556
1577.853906	-310.431915	117.797775	-179.236115
1577.857263	-310.548798	117.213326	-178.826996
1577.860592	-310.431915	116.687317	-178.710098
1577.863960	-311.133270	116.453529	-178.943878
1577.867248	-310.957947	116.395088	-179.119232
1577.870566	-311.776154	116.570427	-180.229691
1577.874377	-312.009949	116.511978	-180.521912
1577.877662	-311.659271	116.278198	-180.989487
1577.880949	-312.360626	116.278198	-180.755692
1577.884251	-312.711304	116.336639	-181.983047
1577.887587	-313.412628	116.336639	-182.684387
1577.890874	-314.055542	116.745766	-183.736404
1577.894265	-314.230865	116.570427	-184.379303
1577.897586	-315.282867	116.395088	-185.840439
1577.901297	-316.101135	116.395088	-186.834015
1577.904605	-316.860931	116.511978	-187.827591
1577.907891	-317.445343	116.745766	-189.230270
1577.911251	-318.205139	117.505547	-190.282288
1577.914540	-318.906494	117.330215	-191.918762
1577.917931	-319.607849	117.096436	-193.672119
1577.921227	-320.659851	117.739326	-195.308594
1577.925044	-321.302765	118.090004	-196.477493
1577.928313	-322.705444	118.148453	-197.880188
1577.931615	-323.348328	118.148453	-200.101105
1577.934892	-323.932800	118.265343	-201.562241
1577.938173	-324.634155	118.732903	-202.380478
1577.941489	-325.978394	118.206894	-203.666275
1577.945228	-327.205750	119.200470	-205.244308
1577.948487	-328.023956	119.434250	-207.289886
1577.951774	-329.602020	119.317360	-209.627701
1577.955041	-330.011108	119.025124	-210.387497
1577.958323	-331.063141	119.609589	-212.608414
1577.962083	-332.348938	119.784920	-214.478668
1577.965357	-333.050293	119.784920	-216.290466
1577.968668	-334.102264	120.310928	-216.991821
1577.971955	-335.446533	120.486267	-219.388062
1577.975267	-337.433685	120.486267	-221.258316
1577.978562	-338.427246	121.070717	-223.654587
1577.982368	-338.544128	121.246056	-225.583282
1577.985890	-340.063721	121.421387	-227.278198
1577.989229	-341.407959	121.830513	-230.025131
1577.992556	-342.927521	121.947403	-232.187622
1577.995893	-344.680878	122.707184	-234.700760
1577.999226	-346.317383	122.824074	-237.739914
1578.002590	-347.720062	122.531853	-240.545288
1578.005885	-349.005859	123.233200	-243.818222
1578.009223	-350.817657	123.291641	-247.617187
1578.012558	-352.395691	123.700760	-250.305664
1578.015888	-353.739929	124.402107	-254.046173
1578.019222	-354.675049	125.161888	-256.559326
1578.022549	-357.071320	125.454117	-260.767395
1578.025889	-358.649353	125.629456	-264.917023
1578.029217	-360.227356	125.629456	-268.306854
1578.032984	-362.156067	125.921684	-271.988892
1578.036305	-363.909454	126.564575	-278.008789
1578.039651	-366.481018	127.149033	-282.684387
1578.042998	-367.766815	127.382812	-287.009369
1578.046360	-370.046204	127.733482	-291.977203
1578.049659	-371.039734	128.317947	-296.828186
1578.052989	-373.669769	128.843948	-302.205170
1578.056312	-375.481598	128.668610	-306.763885
1578.059641	-377.994720	129.486847	-312.433105
1578.062968	-379.748108	129.779083	-317.284058
1578.066752	-381.618378	130.538864	-321.667450
1578.070091	-383.839264	130.772644	-327.453552
1578.073457	-385.358856	131.181763	-333.648743
1578.076814	-387.462921	131.707764	-339.317932
1578.080125	-388.982483	131.649323	-344.928711
1578.083391	-391.144958	131.707764	-351.123901
1578.086732	-391.904755	132.759796	-356.091766
1578.090108	-394.184113	132.759796	-361.877838
1578.093414	-396.346588	133.402679	-367.839294
1578.096768	-398.333740	132.876678	-374.911163
1578.100143	-399.151947	133.052017	-381.515503
1578.103462	-401.431335	133.285797	-387.360016
1578.107188	-402.717133	133.636475	-393.672150
1578.110499	-404.470490	134.045593	-400.568695
1578.113832	-405.405609	133.987137	-406.413239
1578.117217	-407.100555	134.454712	-414.478699
1578.120565	-408.795471	134.220917	-421.667450
1578.123902	-410.431915	134.337814	-428.447113
1578.127202	-411.425507	134.454712	-436.103455
1578.130516	-412.711304	134.688477	-443.000031
1578.133883	-413.763275	134.746933	-450.773254
1578.137221	-415.399811	133.987137	-459.130920
1578.140594	-416.101135	133.987137	-466.728821
1578.144352	-417.562256	133.461136	-475.787842
1578.147660	-418.614258	133.578033	-484.203949
1578.151016	-419.900085	133.402679	-493.789001
1578.154280	-420.016968	132.759796	-503.023376
1578.157588	-421.828766	132.292236	-511.205719
1578.160882	-422.004089	132.175339	-521.083008
1578.164629	-422.179413	132.233780	-531.135559
1578.167965	-422.530121	131.415543	-540.895935
1578.171244	-423.056122	130.772644	-551.416138
1578.174582	-423.465271	129.954407	-562.637634
1578.177898	-423.173004	129.136169	-572.982422
1578.181228	-423.173004	128.142609	-583.268799
1578.184511	-422.822327	127.324371	-593.672119
1578.188249	-421.653412	127.032143	-605.653381
1578.191558	-421.068970	125.687904	-616.641113
1578.194833	-419.900085	125.103447	-627.979553
1578.198147	-418.731171	123.525421	-639.317932
1578.201444	-417.620697	122.531853	-650.188782
1578.205212	-416.743988	120.661606	-662.170044
1578.208523	-415.107544	119.901810	-673.683777
1578.211803	-412.711304	118.382233	-685.314453
1578.215095	-411.308594	116.628868	-697.120422
1578.218392	-408.620117	114.992401	-707.991211
1578.221793	-406.048553	113.297485	-720.030945
1578.225066	-403.886047	112.245468	-731.661560
1578.228380	-400.846863	110.316772	-742.357056
1578.232112	-397.924622	108.095848	-754.747498
1578.235868	-394.651642	106.517822	-765.442993
1578.239193	-390.911163	104.413795	-777.015198
1578.242528	-386.995331	102.192871	-789.347168
1578.245864	-382.728821	99.855057	-801.796021
1578.249198	-378.696106	97.517242	-813.309753
1578.252529	-374.429565	95.296310	-824.706604
1578.255868	-369.637054	92.724716	-836.921692
1578.259199	-364.727631	90.270020	-846.565125
1578.262531	-359.701355	87.756866	-858.721802
1578.265864	-354.265930	84.717712	-870.936829
1578.269222	-348.479858	82.087662	-881.573914
1578.272528	-342.635315	78.639389	-893.321411
1578.275867	-336.147888	75.074226	-904.718262
1578.279195	-329.075989	72.385742	-915.296936
1578.282531	-322.763916	68.002335	-926.576843
1578.285859	-316.042664	64.612503	-938.090576
1578.289191	-307.743439	61.281120	-949.136719
1578.292525	-300.145538	57.540619	-960.650513
1578.295856	-291.963196	53.975452	-971.872009
1578.299611	-282.670380	50.468731	-982.158325
1578.302952	-274.546478	45.559322	-992.503235
1578.306320	-265.136780	40.825249	-1003.198669
1578.309615	-255.610184	36.091171	-1012.725342
1578.312972	-244.797775	32.116890	-1022.544067
1578.316301	-235.271194	27.675043	-1031.661621
1578.319631	-224.692581	23.291641	-1041.071411
1578.322954	-213.529495	18.791349	-1050.481079
1578.326284	-203.126236	14.466391	-1059.656982
1578.329609	-191.846283	9.498539	-1066.845703
1578.332945	-180.916992	4.881355	-1075.320312
1578.336707	-168.877258	0.556400	-1081.924683
1578.340050	-157.246628	-3.359440	-1089.814819
1578.343382	-145.031555	-8.327293	-1096.068359
1578.346793	-132.874924	-13.762714	-1101.912964
1578.350146	-120.601395	-18.029228	-1107.523682
1578.353370	-108.795425	-22.354179	-1112.725342
1578.356719	-95.586792	-26.854477	-1117.927002
1578.360029	-83.254822	-31.471657	-1121.492187
1578.363379	-70.805954	-36.088837	-1124.998901
1578.366728	-58.298656	-40.472244	-1128.505493
1578.370103	-46.083576	-44.855644	-1130.668091
1578.373479	-33.517826	-48.829926	-1132.713623
1578.377120	-20.835186	-53.213326	-1134.817749
1578.380484	-8.620102	-57.655174	-1137.447754
1578.383864	4.062534	-61.980125	-1136.629517
1578.387223	16.511398	-65.779076	-1136.980225
1578.390562	28.492695	-69.987137	-1137.213989
1578.393900	40.707775	-74.779663	-1137.038696
1578.397199	53.565750	-78.870842	-1135.811279
1578.400500	65.488602	-82.669792	-1133.882568
1578.403877	77.353012	-86.819405	-1131.544678
1578.407187	88.574524	-90.559914	-1129.557617
1578.410948	100.789597	-94.183525	-1126.693726
1578.414260	112.654007	-98.099358	-1124.589722
1578.417570	124.050842	-101.664528	-1121.199951
1578.420904	135.097015	-105.931038	-1115.706055
1578.424191	146.435425	-108.385735	-1111.147339
1578.427487	157.832260	-112.301582	-1106.004150
1578.430783	169.229111	-116.158974	-1100.977783
1578.434564	179.690826	-119.373466	-1094.607300
1578.437950	191.263000	-122.763298	-1089.405640
1578.441242	201.374054	-125.685570	-1081.807739
1578.444561	211.485092	-128.783173	-1075.261963
1578.447851	222.063705	-132.056122	-1066.962646
1578.451109	232.525436	-135.387482	-1058.371216
1578.454862	242.402695	-137.842194	-1050.071899
1578.458159	252.279953	-140.413788	-1041.889648
1578.461442	261.631195	-142.810059	-1032.655151
1578.464725	271.274689	-145.498535	-1022.777893
1578.467993	280.509033	-147.894806	-1014.186462
