time (s)	magX	magY	magZ
2118.122295	-249.882523	136.967865	-131.018707
2118.125630	-250.759201	136.850952	-132.246063
2118.128959	-251.109879	137.610748	-133.648743
2118.132318	-251.577438	137.610748	-134.759201
2118.135646	-252.804794	138.662781	-135.577438
2118.138976	-253.623032	138.545883	-136.746353
2118.142310	-254.090591	139.422562	-138.791931
2118.145661	-254.967270	139.890121	-139.025711
2118.148961	-256.077759	140.649902	-141.538864
2118.152294	-257.188202	140.766815	-143.116898
2118.156070	-257.480438	141.994156	-144.110458
2118.159393	-259.058472	142.461716	-145.396255
2118.162732	-259.935150	143.046173	-147.266510
2118.166114	-260.636475	144.331970	-149.019867
2118.169453	-262.272949	144.098175	-151.007004
2118.172810	-263.149628	145.500870	-153.286377
2118.176088	-264.669220	146.026886	-155.741089
2118.179370	-265.545898	146.786667	-157.611328
2118.182711	-267.416138	147.488007	-159.715363
2118.186066	-268.292816	148.014023	-161.644058
2118.189425	-269.403259	148.773819	-163.981873
2118.192805	-270.513763	150.059601	-166.202789
2118.196135	-272.208649	150.994736	-168.306839
2118.199812	-273.260681	151.929871	-171.053772
2118.203146	-275.247833	152.572769	-173.742249
2118.206530	-276.358276	152.864990	-176.430740
2118.209863	-277.936310	153.858551	-179.411453
2118.213232	-278.988312	154.501465	-182.450607
2118.216553	-280.274109	155.261246	-184.379303
2118.219865	-282.261261	156.313263	-188.295151
2118.223151	-283.722412	156.897705	-190.048508
2118.226560	-285.592651	157.306839	-193.905899
2118.229889	-287.053772	157.891296	-196.594376
2118.233653	-288.982483	158.767975	-199.691986
2118.236954	-290.794281	159.878448	-203.081818
2118.240296	-292.722961	160.462891	-206.354767
2118.243598	-293.950317	160.930450	-210.095261
2118.246899	-296.346588	162.099365	-213.718887
2118.250264	-297.924622	163.268250	-216.758026
2118.253554	-300.028625	163.735825	-220.790756
2118.257380	-301.723572	164.378723	-223.771469
2118.260653	-303.243134	165.781418	-228.739319
2118.263961	-305.873199	167.008759	-233.298080
2118.267223	-306.866760	168.586792	-237.447678
2118.270456	-308.970795	169.405029	-242.240204
2118.273756	-310.548798	170.340149	-247.266495
2118.277533	-312.945068	171.509064	-250.890121
2118.280853	-314.873779	172.794861	-255.448853
2118.284137	-317.562256	173.671539	-261.118073
2118.287424	-318.672699	174.665100	-266.553467
2118.290738	-320.426086	175.950897	-272.339600
2118.294101	-322.062531	177.061371	-277.599670
2118.297451	-323.932800	178.347168	-284.379333
2118.300758	-326.504395	179.691406	-289.931641
2118.304474	-328.549988	180.626526	-295.776154
2118.307773	-329.835785	181.269440	-301.737610
2118.311019	-330.712463	182.087677	-307.991241
2118.314379	-332.933380	184.133270	-315.998260
2118.317657	-334.745209	184.659271	-321.784363
2118.321354	-336.673889	185.477509	-328.739349
2118.324658	-337.959686	187.055511	-335.752777
2118.327937	-339.946838	188.282867	-342.181793
2118.331286	-341.758636	188.808899	-350.013458
2118.334576	-343.862671	189.802460	-358.137360
2118.337926	-344.856232	190.503784	-365.443024
2118.341671	-346.726501	191.088257	-373.216248
2118.345184	-348.129181	192.198700	-381.515503
2118.348510	-349.414978	192.432495	-389.639404
2118.351867	-351.226776	193.367615	-397.880188
2118.355175	-352.629486	193.718292	-406.062561
2118.358512	-354.558167	194.302734	-414.654022
2118.361849	-355.084198	193.952087	-424.005280
2118.365186	-356.253052	195.237854	-431.603149
2118.368512	-356.895966	194.828766	-441.129791
2118.371842	-358.240234	194.653412	-450.539459
2118.375182	-359.409149	194.536530	-460.066040
2118.378509	-360.285797	194.594971	-468.715973
2118.381864	-360.578033	194.828766	-478.417877
2118.385175	-361.396271	194.536530	-488.704254
2118.388506	-361.337799	194.653412	-499.633545
2118.392265	-361.746948	194.127411	-508.867950
2118.395612	-361.396271	193.309174	-519.563416
2118.398930	-361.454742	192.783173	-530.726440
2118.402262	-361.863800	192.081818	-541.071289
2118.405596	-360.870270	191.322021	-552.117493
2118.408934	-360.636475	191.088257	-563.222107
2118.412261	-359.350677	190.036224	-574.911133
2118.415615	-358.181763	189.159546	-585.548157
2118.418996	-357.421967	188.341339	-597.061951
2118.422284	-355.727051	187.698425	-608.984802
2118.426032	-354.850403	185.886627	-620.790710
2118.429365	-352.571014	184.893036	-633.064270
2118.432682	-350.116302	183.899475	-644.987122
2118.436041	-347.310944	182.496765	-657.319092
2118.439378	-344.564026	180.334320	-669.066589
2118.442786	-341.641754	179.282288	-681.924622
2118.446076	-338.368805	177.295166	-694.548767
2118.449419	-335.037415	175.424896	-706.413208
2118.452682	-331.589142	173.087067	-719.563416
2118.456020	-326.679749	170.515472	-731.135559
2118.459402	-322.588531	167.768555	-744.227356
2118.462752	-318.088257	163.911163	-755.974854
2118.466514	-313.354187	161.514908	-769.300415
2118.469905	-307.684998	158.592636	-780.697205
2118.473188	-302.132690	154.910583	-793.847412
2118.476483	-296.463470	151.462296	-806.004089
2118.479791	-290.852722	147.488007	-818.569824
2118.483170	-284.248413	142.929276	-830.609558
2118.486524	-277.760956	138.896545	-842.298645
2118.489863	-272.033325	134.688477	-854.046143
2118.493159	-264.961426	130.188202	-866.611938
2118.496490	-258.006439	125.103447	-877.891907
2118.500280	-250.174759	120.310928	-887.418457
2118.503628	-243.102859	115.109291	-899.691956
2118.506930	-235.095840	109.556984	-910.562805
2118.510281	-226.971939	104.180008	-920.440063
2118.513547	-218.731155	98.627701	-930.784851
2118.516897	-209.847458	92.783165	-940.895935
2118.520175	-201.022217	86.587959	-951.123901
2118.523871	-192.430756	80.801865	-960.182922
2118.527171	-183.196365	74.489769	-968.832825
2118.530436	-173.319122	68.645233	-977.424316
2118.533759	-163.850967	62.274693	-986.366455
2118.537074	-153.506119	56.079483	-994.548767
2118.540757	-143.278198	50.001167	-1002.263611
2118.544090	-132.173569	42.812389	-1008.867920
2118.547353	-121.185852	36.441845	-1016.115173
2118.550673	-109.789001	29.311512	-1023.187012
2118.553974	-98.450607	23.174751	-1029.031616
2118.557253	-87.345993	16.804207	-1034.759277
2118.561004	-75.130920	10.316772	-1039.025757
2118.564262	-62.740498	3.537109	-1042.590942
2118.567585	-51.226765	-2.424313	-1047.032715
2118.570857	-38.894794	-9.145531	-1049.779785
2118.574230	-25.978374	-16.275860	-1052.818848
2118.577510	-13.880188	-22.529518	-1054.163086
2118.581255	-1.431324	-28.783165	-1057.143799
2118.584622	10.783752	-35.621277	-1057.903564
2118.587901	23.174168	-41.407364	-1057.786743
2118.591206	35.856812	-47.836349	-1058.663452
2118.594494	49.007015	-54.206902	-1057.319214
2118.597738	60.812973	-60.402100	-1055.507324
2118.601501	72.969604	-66.655762	-1054.747559
2118.605156	84.366455	-72.734077	-1051.825317
2118.608485	96.113968	-79.163055	-1049.429077
2118.611825	107.335480	-84.773827	-1046.331421
2118.615159	119.082993	-90.618355	-1042.415527
2118.618488	129.661606	-96.170662	-1038.090698
2118.621818	140.707779	-101.898308	-1032.479858
2118.625153	151.753937	-107.450615	-1027.161377
2118.628528	161.338974	-113.587379	-1020.615479
2118.631821	171.625366	-118.438347	-1015.121521
2118.635161	181.794861	-124.399757	-1007.991211
2118.638487	191.029221	-128.900055	-1000.977783
2118.641849	200.555817	-134.160156	-993.379822
2118.645149	209.497955	-139.361786	-985.080627
2118.648488	217.855637	-144.855652	-977.482788
2118.651816	226.973129	-149.648163	-970.001770
2118.655164	235.272354	-153.330200	-961.293396
2118.658488	243.220917	-157.596741	-951.416077
2118.662237	250.234375	-161.571014	-941.188232
2118.665580	257.715363	-165.369965	-931.252441
2118.668925	264.728821	-169.519562	-921.492065
2118.672273	271.508484	-173.435394	-910.562805
2118.675588	278.054352	-175.890106	-900.276428
2118.678913	284.249573	-178.812378	-888.996460
2118.682237	290.327881	-181.851562	-878.184082
2118.685608	295.938629	-184.656952	-867.488525
2118.688907	302.075378	-186.994751	-855.156555
2118.692238	307.452362	-189.566345	-843.642883
2118.696010	312.537079	-192.021057	-832.713562
2118.699371	317.446503	-194.008179	-821.375244
2118.702744	321.713013	-195.527740	-808.809448
2118.706060	326.505524	-197.398010	-796.535950
2118.709342	331.122711	-198.742249	-783.853271
2118.712657	334.278778	-199.852722	-771.813538
2118.715988	338.369965	-201.313873	-759.890686
2118.719349	341.233765	-202.248993	-747.909363
2118.722678	344.798950	-203.359436	-735.752747
2118.726057	348.013458	-203.943909	-723.946777
2118.729419	351.227936	-205.346588	-711.848633
2118.732738	352.689056	-205.931030	-700.276428
2118.736417	355.202209	-206.515472	-688.879578
2118.739769	357.130890	-206.983063	-676.313843
2118.743157	358.884247	-207.625946	-665.150757
2118.746530	360.696075	-208.151978	-652.818787
2118.749828	361.397430	-207.918182	-641.947937
2118.753156	362.507874	-208.093506	-630.492676
2118.756484	363.033875	-209.320862	-619.212769
2118.759799	364.027466	-208.970184	-607.874329
2118.763178	364.495026	-209.028625	-596.886597
2118.766526	364.728790	-209.145538	-586.717102
2118.770273	364.904144	-209.320862	-575.904724
2118.773556	364.904144	-209.496185	-565.559875
2118.776794	364.495026	-208.970184	-555.331970
2118.780156	364.553467	-208.385742	-546.331360
2118.783428	364.144348	-208.619537	-535.460510
2118.786774	363.326111	-208.736389	-525.992371
2118.790516	362.858551	-208.268829	-516.231995
2118.793933	361.338959	-208.210419	-507.757477
2118.797238	360.053162	-207.684418	-498.406219
2118.800547	360.345398	-207.275269	-488.178253
2118.803844	359.118042	-206.457062	-480.288116
2118.807129	358.066040	-205.521912	-470.761536
2118.810464	356.897125	-205.638794	-462.579193
2118.813718	355.435974	-205.171234	-454.279938
2118.817129	354.500854	-204.177673	-446.097626
2118.820878	353.331970	-203.008789	-437.915283
2118.824177	351.929291	-202.132080	-428.797760
2118.827509	350.877258	-201.781433	-421.725891
2118.830820	349.708344	-201.196960	-413.835754
2118.834143	348.656342	-200.320282	-407.231445
2118.837437	346.786102	-198.683807	-399.341339
2118.840789	345.675629	-198.040924	-392.620117
2118.844498	343.513153	-196.988892	-385.431335
2118.847867	341.818237	-196.229095	-378.476349
2118.851156	340.999969	-194.884857	-371.755127
2118.854462	339.538849	-194.008179	-364.683228
2118.857741	337.727051	-193.073059	-358.604919
2118.861036	336.090576	-192.196381	-352.877289
2118.864808	334.629425	-191.085907	-345.630066
2118.868460	333.460541	-190.092346	-339.668640
2118.871793	331.648712	-188.748108	-333.940979
2118.875121	329.544708	-187.929871	-327.979553
2118.878462	328.375793	-186.819397	-322.485687
2118.881798	326.563995	-185.767395	-317.751617
2118.885123	325.161316	-184.715363	-312.199310
2118.888487	323.583252	-183.897156	-306.997681
2118.891796	321.654572	-182.962006	-301.796021
2118.895126	320.251892	-182.085327	-297.529541
2118.898458	318.732300	-180.799530	-292.561676
2118.901814	317.095856	-180.331970	-287.769165
2118.905128	315.108704	-179.104614	-283.268860
2118.908454	313.413788	-177.760376	-279.645264
2118.911790	312.186432	-177.877258	-275.729401
2118.915131	310.783752	-177.234375	-271.521332
2118.918456	309.439514	-176.065460	-268.365295
2118.921789	307.510803	-175.364105	-264.975464
2118.925122	305.932770	-174.838104	-260.241394
2118.928876	304.705414	-174.136780	-257.436005
2118.932235	303.361176	-173.902985	-253.870834
2118.935566	301.315582	-172.792511	-251.065460
2118.938936	300.555817	-172.441833	-247.909409
2118.942259	298.919342	-171.740479	-245.922272
2118.945555	297.633545	-171.156067	-242.064865
2118.948885	296.347748	-170.337799	-239.551727
2118.952207	294.711273	-169.694916	-237.623016
2118.955549	293.308594	-168.993561	-234.116302
2118.958886	292.899475	-168.584442	-231.953827
2118.962668	292.081238	-168.409119	-229.674454
2118.966037	291.087677	-167.532440	-226.459976
2118.969376	289.334290	-166.831085	-224.706589
2118.972744	287.931610	-166.129730	-223.011703
2118.975984	286.587372	-165.194611	-220.323196
2118.979296	286.353577	-164.434845	-217.517822
2118.982662	285.593811	-164.084167	-215.180008
2118.985985	284.191101	-163.149017	-214.127975
2118.989325	284.015778	-162.623016	-212.433090
2118.992699	283.139099	-162.330811	-209.978363
2118.996029	282.905304	-161.220337	-208.751022
2118.999729	281.210388	-160.869690	-206.179428
2119.003078	280.976593	-160.226746	-204.542953
2119.006490	280.158386	-159.408539	-203.549393
2119.009815	279.807709	-159.583862	-202.146698
2119.013126	277.995911	-158.882538	-200.101105
2119.016500	277.645233	-158.239624	-198.639984
2119.019761	276.826996	-157.947418	-197.821732
2119.023066	276.768555	-157.596741	-196.477493
2119.026487	276.242554	-157.538269	-195.600815
2119.029823	275.599640	-157.012268	-194.373459
2119.033124	275.190521	-156.836945	-193.672119
2119.036909	274.606079	-156.135590	-193.146103
2119.040304	274.664520	-155.901825	-191.392746
2119.043578	274.080078	-156.018707	-190.749847
2119.046831	274.138519	-155.843353	-190.282288
2119.050165	273.086487	-155.726501	-190.399185
2119.053423	272.969604	-155.551117	-189.639389
2119.057201	273.086487	-155.200470	-189.230270
2119.060463	272.677368	-155.200470	-189.405609
2119.063731	272.151367	-155.551117	-188.704269
2119.067041	271.800690	-155.142029	-187.827591
2119.070316	271.566925	-155.726501	-188.528931
2119.074084	271.742249	-155.901825	-188.236710
2119.077414	271.391571	-155.668030	-187.710693
2119.080651	271.391571	-155.726501	-188.470490
2119.083946	271.099365	-155.434265	-188.178253
2119.087214	271.625366	-155.960266	-188.938049
2119.090555	271.800690	-155.901825	-189.405609
2119.094348	271.800690	-156.018707	-188.879593
2119.097704	271.742249	-156.194061	-189.814728
2119.100997	272.326721	-155.434265	-189.288712
2119.104269	272.326721	-155.784912	-190.516068
2119.107612	272.560486	-156.310913	-190.983627
2119.110870	272.618927	-156.486267	-191.275864
2119.114189	272.443604	-156.836945	-190.691406
2119.117887	272.969604	-157.655182	-192.094086
2119.121168	273.144928	-156.778473	-193.204559
2119.124493	273.846283	-157.129181	-193.613678
2119.127754	274.781433	-157.888947	-193.555222
2119.131087	274.898285	-157.304504	-195.016357
2119.134465	275.365845	-157.538269	-195.951492
2119.138184	276.008789	-157.888947	-197.061951
2119.141765	277.294556	-157.772064	-198.406189
2119.145098	277.762115	-158.707184	-198.756866
2119.148434	278.521912	-158.531860	-200.159546
2119.151769	278.463470	-158.648743	-201.386902
2119.155142	279.223267	-159.116302	-202.614258
2119.158435	279.749268	-159.876099	-204.367615
2119.161771	280.859741	-159.759186	-206.296310
2119.165096	281.502625	-160.109894	-207.172989
2119.168429	282.496185	-160.226746	-208.692581
2119.171767	282.963745	-160.635895	-210.621277
2119.175095	283.606659	-161.629456	-212.608414
2119.178425	285.184692	-162.213898	-214.829330
2119.181764	285.301575	-163.032166	-216.582687
2119.185093	286.061371	-162.915253	-218.511398
2119.188426	287.931610	-163.675049	-221.141418
2119.192202	289.392761	-164.727051	-223.713028
2119.195571	289.568085	-165.486847	-225.174149
2119.198894	290.327881	-166.071289	-228.505554
2119.202183	291.496765	-166.480438	-230.843369
2119.205528	293.074799	-167.532440	-232.888947
2119.208856	293.834595	-167.707794	-236.571014
2119.212188	294.535950	-168.876678	-239.084167
2119.215518	296.230865	-169.928711	-242.824661
2119.218857	297.691986	-170.746918	-245.396240
2119.222202	299.445343	-171.448273	-248.143188
2119.225535	300.497375	-172.734070	-251.591461
2119.229371	301.432495	-173.143188	-254.981293
2119.232605	302.426056	-173.669189	-258.488037
2119.235942	303.770294	-174.896545	-261.527191
2119.239273	305.698975	-175.422546	-265.209229
2119.242635	307.744598	-176.416138	-268.774414
2119.245950	308.679718	-177.175903	-272.398010
2119.249379	309.790192	-178.286407	-276.372314
2119.252675	311.601959	-178.637054	-279.820587
2119.255969	313.121552	-179.513733	-283.677979
2119.259310	314.173584	-180.098175	-288.236725
2119.263042	316.219147	-180.857971	-292.970795
2119.266429	317.212708	-181.968445	-297.646393
2119.269773	318.966095	-182.962006	-301.796021
2119.273123	321.070129	-183.371124	-306.237885
2119.276498	322.589691	-184.014008	-311.205750
2119.279786	324.576843	-184.949158	-316.465820
2119.283074	326.096436	-185.416718	-322.251923
2119.286433	327.966675	-186.585632	-325.933960
2119.289757	329.544708	-187.637634	-332.012268
2119.293136	331.356506	-188.163635	-337.038605
2119.296416	332.759186	-188.748108	-342.532440
2119.300220	334.804779	-189.390991	-348.902985
2119.303485	335.623016	-190.326111	-354.572174
2119.306748	337.960846	-191.144348	-360.767395
2119.310065	339.071289	-192.196381	-367.547058
2119.313348	340.999969	-192.839264	-373.508484
2119.316657	342.811798	-193.774384	-380.989471
2119.320409	344.039154	-194.183533	-387.067810
2119.323723	345.441833	-195.352417	-394.256592
2119.327015	347.078308	-196.170685	-401.036255
2119.330283	348.247223	-197.807129	-408.575714
2119.333603	349.825226	-198.566925	-415.296906
2119.336965	350.935699	-198.742249	-424.005280
2119.340308	352.630615	-199.326721	-431.895416
2119.344020	354.384003	-201.080078	-439.843933
2119.347272	354.559326	-201.138519	-447.850983
2119.350635	356.195770	-202.716553	-456.091797
2119.353885	357.014008	-203.651672	-465.150787
2119.357240	358.241364	-204.236115	-474.268311
2119.360926	358.884247	-205.463470	-482.275299
2119.364217	359.234955	-205.872589	-491.743439
2119.367483	360.403839	-206.573914	-501.679138
2119.370778	360.754517	-207.099945	-511.439514
2119.374104	361.280518	-208.444183	-520.381653
2119.377828	361.923431	-208.444183	-529.732849
2119.381117	362.683228	-209.320862	-539.376404
2119.384399	362.449432	-208.970184	-549.428955
2119.387726	363.092316	-209.554657	-558.955566
2119.391054	363.618347	-209.554657	-569.709534
2119.394427	363.501434	-209.788422	-580.521912
2119.397708	363.501434	-209.905304	-590.983582
2119.401452	363.559906	-209.729980	-601.679138
2119.405078	363.501434	-209.963745	-611.088806
2119.408408	363.559906	-209.320862	-622.661011
2119.411742	363.033875	-208.619537	-633.005859
2119.415110	361.864990	-207.918182	-643.818237
2119.418413	360.929871	-207.859741	-654.513733
2119.421739	360.345398	-207.216827	-665.618347
2119.425071	358.825836	-206.340149	-676.956726
2119.428405	357.773804	-205.814148	-688.002869
2119.431737	356.546448	-204.645233	-698.756836
2119.435072	355.026886	-204.060791	-711.497925
2119.438408	353.273499	-203.242554	-723.479248
2119.441743	350.760345	-201.839874	-734.408508
2119.445070	348.130310	-201.080078	-745.863770
2119.448417	345.734070	-199.735840	-756.909973
2119.451744	342.285797	-198.157806	-768.599060
2119.455075	339.305084	-196.521332	-781.047913
2119.458436	335.973694	-195.527740	-792.912292
2119.462160	332.700745	-193.657501	-804.367615
2119.465501	328.200439	-191.670380	-816.231995
2119.468834	323.583252	-190.267700	-827.979553
2119.472154	319.433655	-188.338989	-838.791931
2119.475486	314.348907	-186.234955	-851.065430
2119.478833	309.381042	-183.838684	-862.111633
2119.482178	303.419647	-181.910004	-873.742249
2119.485506	297.925751	-179.572174	-884.554626
2119.488850	291.555237	-176.708344	-895.308533
2119.492152	285.360016	-173.727631	-905.419617
2119.495921	279.164825	-171.214478	-916.407349
2119.499243	272.326721	-167.707794	-927.219727
2119.502620	265.780823	-164.960846	-937.506104
2119.505923	258.124481	-161.278778	-946.740479
2119.509388	250.468140	-157.888947	-955.799561
2119.512651	243.220917	-153.797791	-965.033875
2119.516001	234.863235	-150.349518	-973.859070
2119.519249	227.090012	-145.556976	-982.216797
2119.522577	217.680313	-141.056702	-990.223877
