time (s)	magX	magY	magZ
3771.903146	-285.183533	128.727051	-213.192856
3771.906499	-285.884857	128.025726	-215.589127
3771.909807	-287.112213	128.785507	-217.810043
3771.913142	-288.456482	129.486847	-219.037399
3771.916479	-288.573364	129.545288	-220.966095
3771.919806	-289.450043	130.129745	-222.310349
3771.923143	-290.092926	130.246643	-226.459976
3771.926472	-291.495636	131.123322	-227.979523
3771.930232	-292.489197	131.415543	-230.784927
3771.933573	-293.716553	131.766205	-233.531845
3771.936923	-294.710114	131.883118	-235.168320
3771.940249	-295.528351	132.233780	-238.090576
3771.943568	-296.288147	132.467560	-241.188187
3771.946890	-297.690826	133.461136	-243.935120
3771.950257	-298.509064	133.461136	-246.974289
3771.953565	-300.496216	133.636475	-249.545868
3771.956892	-301.489777	133.811798	-252.292816
3771.960222	-302.308014	134.337814	-255.682648
3771.964008	-304.236694	134.688477	-259.247833
3771.967410	-305.464050	134.805374	-263.222107
3771.970721	-306.048523	135.623611	-266.027466
3771.973988	-307.509644	136.032730	-270.235535
3771.977307	-309.146118	136.266510	-274.209839
3771.980645	-310.081238	135.682068	-278.300995
3771.984003	-310.957947	136.792511	-281.866180
3771.987379	-312.419067	137.084747	-285.372894
3771.990718	-313.354187	137.260071	-289.288727
3771.994062	-315.282867	137.844543	-293.905914
3771.997339	-316.510223	138.428986	-297.529541
3772.001085	-317.912933	138.604324	-302.263611
3772.004428	-319.724731	139.130341	-306.471649
3772.007813	-319.958527	139.188782	-310.913513
3772.011173	-320.893646	140.065460	-314.829346
3772.014467	-321.419647	140.766815	-319.914093
3772.017763	-323.173004	141.292816	-325.700195
3772.021089	-324.517242	141.000580	-329.499115
3772.024452	-325.510803	141.701935	-334.759216
3772.027827	-326.796600	141.526581	-338.908844
3772.031192	-327.673309	142.286377	-344.052032
3772.034484	-328.491516	142.812378	-349.779694
3772.038200	-329.952667	143.747513	-354.572174
3772.041534	-330.712463	143.338409	-359.423157
3772.044854	-331.355377	144.156631	-365.443024
3772.048126	-331.998260	144.156631	-371.053772
3772.051486	-333.225616	144.390411	-377.424316
3772.054737	-334.336060	144.156631	-383.444183
3772.058079	-334.511414	144.507294	-389.990082
3772.061829	-335.914093	144.390411	-395.893066
3772.065126	-336.147888	144.215073	-402.322021
3772.068412	-337.550568	144.215073	-408.867950
3772.071688	-337.842804	144.156631	-416.348938
3772.075021	-338.310364	143.455292	-422.544159
3772.078758	-339.011688	143.922852	-429.849823
3772.082089	-340.180603	143.279953	-438.499725
3772.085398	-340.180603	143.163055	-445.279358
3772.088759	-340.589722	142.637054	-453.286407
3772.092047	-340.239044	142.578613	-461.176483
3772.095434	-341.232605	141.760376	-468.657532
3772.098702	-341.349518	140.883698	-476.606079
3772.101997	-341.407959	140.240784	-484.788422
3772.105736	-341.700165	138.838104	-493.964355
3772.108997	-341.174164	138.253662	-502.614258
3772.112368	-340.881958	137.201630	-510.738190
3772.115647	-340.297485	136.091171	-518.745178
3772.118997	-339.362366	135.272934	-527.278137
3772.122267	-339.362366	133.811798	-536.454102
3772.125641	-338.661041	132.876678	-545.396240
3772.129371	-337.959686	131.590881	-554.805908
3772.133117	-337.083008	130.071304	-562.579163
3772.136464	-335.446533	129.136169	-571.579773
3772.139784	-334.277649	127.558151	-579.995911
3772.143124	-332.407379	125.980125	-589.171814
3772.146457	-331.121582	125.044998	-597.938599
3772.149787	-329.952667	123.408531	-607.172974
3772.153117	-327.907104	121.888954	-617.050232
3772.156452	-325.335480	120.310928	-625.817017
3772.159784	-323.348328	118.323784	-634.700745
3772.163119	-320.776764	116.219749	-643.935120
3772.166488	-318.322052	115.050842	-652.409668
3772.169780	-315.750427	112.479248	-662.403870
3772.173111	-312.126831	110.901230	-671.988892
3772.176450	-309.146118	108.271187	-681.398560
3772.179796	-305.814758	106.693161	-690.223816
3772.183112	-301.548218	103.069550	-700.276428
3772.186445	-298.275299	100.614845	-709.335449
3772.189785	-294.651672	98.043251	-718.160706
3772.193112	-290.151398	96.114548	-727.745728
3772.196450	-286.177094	93.016953	-736.687866
3772.200218	-281.618378	89.334892	-746.740479
3772.203556	-276.942749	86.178841	-755.507324
3772.206879	-271.682648	82.905899	-764.916992
3772.210249	-267.299255	79.457626	-773.742249
3772.213544	-261.863831	75.775566	-783.210388
3772.216868	-255.785507	72.268845	-793.204529
3772.220204	-249.298050	67.943893	-801.971375
3772.223559	-244.096451	63.677383	-810.738159
3772.226861	-237.199875	59.410870	-819.855652
3772.230198	-231.180008	54.735241	-829.382202
3772.233550	-224.225021	49.825832	-838.441223
3772.237354	-216.510208	44.857975	-846.565125
3772.240695	-210.665695	39.773232	-854.046143
3772.243961	-202.950897	34.922268	-862.403870
3772.247296	-195.995895	29.779076	-870.469238
3772.250624	-188.514893	25.571009	-878.125671
3772.254003	-180.624786	20.194036	-884.613098
3772.257309	-171.799530	15.343075	-892.035645
3772.260687	-163.850967	10.024548	-897.997070
3772.264048	-155.259506	5.348915	-904.484558
3772.267317	-147.310928	-0.028053	-910.387512
3772.271054	-138.661011	-4.995907	-915.822876
3772.274395	-129.894211	-10.197544	-922.485718
3772.277783	-121.068954	-15.399185	-926.284546
3772.281112	-111.425476	-20.600822	-931.252441
3772.284488	-102.307999	-25.744011	-934.466980
3772.287800	-93.307419	-30.536530	-939.551697
3772.291134	-84.131500	-36.147285	-943.116821
3772.294428	-74.897141	-40.121567	-946.214478
3772.297810	-65.253662	-45.440094	-948.552307
3772.301137	-55.668613	-49.998833	-950.071899
3772.304876	-45.791348	-54.791351	-951.942139
3772.308170	-36.381641	-59.408531	-954.279968
3772.311581	-26.913502	-64.201050	-955.741089
3772.314915	-17.328461	-67.941551	-957.085266
3772.318163	-8.094097	-72.909409	-956.676147
3772.321513	1.140270	-77.877266	-957.319153
3772.324812	10.959087	-83.078911	-957.611328
3772.328153	20.777908	-87.286964	-957.319153
3772.331485	30.129166	-92.021049	-955.273499
3772.335217	39.363533	-97.456459	-954.981323
3772.338522	49.708359	-101.547630	-952.351257
3772.341819	58.708942	-106.924599	-950.714783
3772.345075	68.703094	-111.308006	-948.318542
3772.348396	77.762131	-115.106956	-944.694885
3772.351696	87.288727	-119.724144	-941.655701
3772.355420	96.113968	-123.639977	-937.506104
3772.358718	105.172997	-128.081818	-932.421387
3772.361984	114.524261	-132.640564	-927.921082
3772.365305	123.115723	-137.082397	-923.654541
3772.368562	131.473404	-141.348907	-918.862000
3772.372337	140.532440	-145.966095	-912.900635
3772.375650	148.890121	-150.232605	-907.172913
3772.379001	156.663345	-154.031555	-899.633545
3772.382364	164.962601	-157.713623	-894.139648
3772.385643	172.443604	-160.460541	-886.892456
3772.388943	179.807724	-164.551727	-879.177612
3772.392241	186.762711	-167.649323	-871.930481
3772.395567	194.711288	-170.688507	-864.858521
3772.399345	201.081833	-173.786102	-857.377502
3772.403092	208.621292	-176.357697	-848.844482
3772.406426	214.348923	-179.689087	-840.428406
3772.409763	220.777908	-182.611328	-832.187622
3772.413096	226.622452	-184.949158	-824.005188
3772.416433	232.408539	-186.994751	-814.770874
3772.419769	237.434845	-188.631195	-806.413208
3772.423093	242.870255	-191.027496	-797.178833
3772.426420	247.838104	-192.547028	-788.002869
3772.429752	252.338394	-193.774384	-780.054382
3772.433091	258.066040	-195.469330	-769.592651
3772.436426	262.215668	-196.521332	-761.351868
3772.439787	266.891296	-198.157806	-752.526611
3772.443089	270.690216	-199.326721	-743.935120
3772.446418	274.722961	-200.437164	-733.181152
3772.449754	278.405029	-201.430725	-725.174133
3772.453097	281.794861	-202.599640	-716.231995
3772.456418	284.834015	-203.242554	-706.939209
3772.459754	287.990082	-203.768555	-697.003479
3772.463089	290.970795	-203.943909	-688.236694
3772.466421	293.367035	-205.580353	-678.710083
3772.470217	296.230865	-205.697266	-668.657532
3772.473528	298.042664	-206.807709	-659.306213
3772.476868	300.789581	-206.866150	-649.078308
3772.480172	303.185852	-207.275269	-640.486816
3772.483540	304.705414	-207.859741	-630.434265
3772.486836	306.692566	-207.918182	-620.615417
3772.490174	308.036804	-208.619537	-611.731689
3772.493513	310.082397	-208.561066	-602.029785
3772.496837	311.309753	-208.561066	-593.029175
3772.500172	312.770874	-209.028625	-582.859741
3772.503533	314.056671	-209.145538	-573.742249
3772.507335	315.108704	-208.794861	-564.858582
3772.510678	315.342468	-208.794861	-555.974854
3772.513969	315.868500	-208.619537	-546.039124
3772.517270	317.388062	-208.619537	-537.622986
3772.520618	317.797180	-208.677979	-528.622437
3772.523949	317.271179	-208.619537	-519.446533
3772.527295	317.797180	-208.035065	-511.030396
3772.530690	318.206299	-207.216827	-502.614258
3772.533995	318.089417	-206.866150	-495.133270
3772.537275	317.563416	-206.690826	-485.840454
3772.541032	317.855652	-206.106354	-478.067200
3772.544446	317.563416	-205.638794	-470.235535
3772.547776	317.037384	-205.229706	-462.812988
3772.551100	316.978943	-204.411469	-455.332001
3772.554411	316.277588	-203.710114	-448.318542
3772.557708	316.043823	-203.476349	-441.305115
3772.561043	314.816467	-201.956757	-433.882538
3772.564400	314.290466	-201.956757	-427.336639
3772.567753	313.939789	-201.080078	-420.673889
3772.571099	313.706024	-200.320282	-414.478699
3772.574463	313.004669	-199.443604	-408.049683
3772.577782	311.952667	-198.391602	-401.796021
3772.581521	311.017517	-197.690247	-396.243713
3772.584790	310.316162	-196.930450	-389.697845
3772.588096	309.381042	-195.878448	-383.502625
3772.591381	308.445923	-195.001740	-377.716553
3772.594666	307.861481	-193.891296	-372.222687
3772.598439	307.218567	-193.073059	-366.670380
3772.601698	305.874329	-192.780823	-361.527191
3772.604968	305.640533	-192.137939	-356.442444
3772.608261	304.471649	-191.319702	-350.773254
3772.611574	302.952057	-189.975464	-345.805389
3772.615349	301.958496	-189.507904	-340.837524
3772.618634	301.257141	-188.222076	-336.454132
3772.621928	300.146698	-188.338989	-331.486267
3772.625253	299.153107	-187.053192	-326.050873
3772.628572	298.159546	-186.001160	-322.018127
3772.631907	297.107544	-184.773804	-316.874939
3772.635234	295.704834	-184.832275	-312.666870
3772.638942	294.419037	-183.429596	-308.225006
3772.642228	293.308594	-182.436005	-303.549377
3772.645555	292.198120	-181.793091	-299.984222
3772.648810	291.146118	-181.091766	-295.659271
3772.652156	289.860321	-180.507324	-290.866760
3772.655442	289.392761	-179.805939	-287.360016
3772.659190	287.171814	-179.163055	-283.385773
3772.662485	286.353577	-178.520172	-279.645264
3772.665764	285.009338	-178.227936	-275.904755
3772.669089	284.249573	-177.468140	-272.398010
3772.672355	283.548218	-176.123901	-269.651093
3772.675649	282.203949	-175.656342	-266.085907
3772.679376	281.035065	-175.130341	-262.345398
3772.683066	279.690826	-174.253662	-260.066040
3772.686406	278.989471	-174.195190	-256.500885
3772.689730	277.937469	-173.786102	-253.987732
3772.693066	277.060760	-173.084747	-251.182358
3772.696392	276.067200	-172.558746	-248.318512
3772.699731	275.774994	-171.740479	-246.974289
3772.703065	274.839844	-170.746918	-244.344254
3772.706390	273.495605	-170.396271	-242.064865
3772.709729	272.443604	-170.279358	-239.727051
3772.713055	272.034485	-169.344238	-237.155457
3772.716400	271.566925	-168.935120	-235.460556
3772.719723	270.631805	-168.526001	-233.590302
3772.723124	269.462860	-167.357086	-231.486267
3772.726395	268.936859	-166.772644	-231.252487
3772.729740	268.352417	-167.006439	-228.680893
3772.733058	267.884857	-165.662170	-227.804199
3772.736390	268.177094	-165.369965	-226.050842
3772.740150	266.306824	-165.369965	-225.057281
3772.743488	266.131500	-164.843933	-223.362366
3772.746812	265.430176	-164.610168	-221.725876
3772.750146	264.962616	-163.850372	-220.556992
3772.753491	264.027466	-163.558167	-218.978958
3772.756829	264.027466	-163.265930	-218.277603
3772.760164	263.092316	-162.915253	-216.991821
3772.763504	262.566315	-162.097015	-216.232025
3772.766856	261.981873	-162.564575	-214.537109
3772.770153	261.806549	-162.213898	-213.485092
3772.773483	261.572754	-162.038574	-212.608414
3772.777239	261.280548	-161.746338	-211.673279
3772.780585	260.812988	-161.395691	-210.562820
3772.783918	260.696075	-161.512573	-209.861481
3772.787315	260.286957	-161.161896	-208.692581
3772.790644	259.760956	-160.928101	-208.225006
3772.793975	258.884277	-160.928101	-208.225006
3772.797238	258.416687	-160.577454	-206.413208
3772.800567	258.241364	-160.460541	-205.419632
3772.803906	257.540039	-160.226746	-205.010529
3772.807253	257.949127	-161.103455	-204.893631
3772.810677	257.656921	-160.928101	-203.841614
3772.814400	256.604919	-160.752777	-203.432495
3772.817720	256.838684	-160.869690	-203.783173
3772.821021	256.780243	-160.460541	-203.257156
3772.824346	256.546448	-160.460541	-202.672699
3772.827727	256.663361	-160.343658	-203.081818
3772.831061	256.838684	-160.811218	-204.075394
3772.834417	256.137360	-160.518982	-203.783173
3772.837693	256.312683	-161.220337	-203.900055
3772.841011	256.546448	-161.161896	-203.432495
3772.844821	256.897156	-160.928101	-204.426056
3772.848112	257.540039	-161.161896	-204.133835
3772.851400	256.897156	-161.395691	-205.010529
3772.854720	257.306244	-161.161896	-206.296310
3772.858049	258.066040	-161.454102	-206.763870
3772.861439	258.241364	-161.103455	-207.640549
3772.864762	258.241364	-161.804810	-208.751022
3772.868049	258.708923	-162.915253	-209.452362
3772.871779	259.585632	-162.213898	-210.270599
3772.875067	259.585632	-163.032166	-211.497955
3772.878388	259.994751	-163.324371	-212.666855
3772.881675	260.053192	-163.090607	-213.894211
3772.884976	261.280548	-163.382812	-215.238464
3772.888219	261.514313	-163.908813	-216.816483
3772.891952	262.449432	-164.025726	-218.043839
3772.895301	262.507904	-164.025726	-218.978958
3772.898562	262.741669	-164.317963	-220.790756
3772.901931	263.735260	-164.843933	-221.959671
3772.905229	264.085907	-165.486847	-222.836334
3772.908560	264.611908	-166.246643	-223.713028
3772.911881	264.553467	-166.597290	-225.875504
3772.915659	265.897736	-166.889526	-227.745758
3772.918969	266.073059	-167.415558	-229.031555
3772.922283	266.832855	-167.941559	-231.135590
3772.925616	267.709534	-168.526001	-233.882507
3772.928896	268.293976	-169.227356	-234.525436
3772.932316	268.819977	-169.811798	-236.746353
3772.935599	269.813568	-170.454712	-238.090576
3772.938885	270.456451	-171.156067	-240.019287
3772.942584	271.157776	-172.149628	-241.538864
3772.945888	271.274689	-172.558746	-244.636475
3772.949199	272.326721	-173.026306	-247.324951
3772.952484	273.028046	-173.727631	-249.019867
3772.955761	274.489197	-174.838104	-251.299225
3772.959477	274.781433	-175.130341	-252.760376
3772.963038	275.716553	-176.123901	-255.565750
3772.966374	276.359436	-176.649902	-258.429565
3772.969702	277.294556	-177.351257	-261.293396
3772.973050	278.405029	-178.753967	-263.806549
3772.976366	279.106354	-178.929291	-266.845703
3772.979701	279.632385	-179.689087	-270.352448
3772.983038	281.268829	-180.273529	-273.742279
3772.986371	282.496185	-182.085327	-277.658112
3772.989696	282.788422	-182.377563	-281.690826
3772.993034	284.308014	-183.137360	-285.256012
3772.996366	284.775574	-184.364716	-288.704285
3772.999704	285.418457	-185.182922	-293.146118
3773.003031	286.762726	-185.767395	-297.295746
3773.006370	287.522522	-186.001160	-301.036255
3773.009703	288.516083	-187.286957	-305.711884
3773.013482	289.509644	-188.280548	-309.978394
3773.016814	291.204559	-189.040344	-314.244904
3773.020118	292.490356	-190.150787	-318.394531
3773.023461	293.425476	-191.144348	-323.479279
3773.026791	293.893066	-191.787262	-328.563995
3773.030120	295.003510	-192.196381	-332.947388
3773.033469	296.289307	-193.189941	-338.675049
3773.036791	297.458191	-193.599060	-342.883118
3773.040138	298.276459	-195.060181	-348.610748
3773.043472	299.503815	-196.053772	-353.344849
3773.046811	300.088226	-196.053772	-359.364716
3773.050546	301.081818	-196.813568	-364.624786
3773.053873	301.724701	-198.274689	-370.410889
3773.057223	302.718262	-199.209808	-375.963196
3773.060566	303.711853	-200.320282	-381.340179
3773.063891	303.887207	-200.963165	-387.769165
3773.067305	304.646973	-202.424316	-393.438354
3773.070653	305.640533	-202.716553	-399.458221
3773.073877	306.400330	-204.236115	-405.127441
3773.077226	307.101685	-204.703674	-411.673309
3773.080542	307.861481	-206.281708	-417.284058
3773.084359	307.861481	-206.573914	-424.297485
3773.087699	308.270599	-207.801270	-430.492706
3773.091044	309.147278	-209.145538	-437.739960
3773.094405	309.205719	-209.203979	-444.519562
3773.097681	310.082397	-210.548218	-450.539459
3773.100993	309.614838	-211.132660	-457.962036
3773.104362	310.316162	-212.769135	-465.735260
3773.107699	310.666840	-213.587372	-472.456451
3773.111081	310.082397	-213.821136	-480.814178
3773.114384	310.257751	-214.756287	-489.347168
3773.117699	309.731720	-215.749847	-498.113983
3773.121025	309.147278	-216.743408	-505.653442
3773.124790	309.556396	-217.503204	-514.420227
3773.128113	309.497955	-218.029205	-522.719482
3773.131408	308.679718	-218.029205	-531.310913
3773.134789	308.387482	-218.555237	-539.259460
3773.138131	307.627686	-219.198120	-547.967834
3773.141400	306.634125	-219.548798	-557.202209
3773.144672	306.283447	-219.607239	-565.968994
3773.148388	305.114563	-219.665680	-575.495605
3773.151676	304.179413	-220.191681	-585.139099
3773.154955	303.302734	-220.542358	-594.198120
3773.158309	301.490936	-219.957916	-603.607849
3773.161594	300.029816	-220.074799	-612.842224
3773.164949	298.860870	-220.074799	-622.602539
3773.168678	296.347748	-219.315002	-633.239624
3773.172074	294.711273	-219.315002	-642.883057
3773.175327	292.198120	-218.379883	-652.000549
3773.178628	290.210999	-217.912323	-662.345398
3773.181918	287.639374	-217.620117	-671.813538
3773.185590	285.535370	-217.094086	-680.872559
3773.188960	283.548218	-216.801849	-689.697815
3773.192219	280.158386	-216.100525	-699.341309
3773.195530	277.762115	-215.516052	-708.634094
3773.198809	273.846283	-214.814697	-718.862000
3773.202105	270.514893	-213.528931	-728.096436
3773.205903	267.300415	-213.119812	-736.512512
3773.209180	263.033905	-212.301575	-745.220947
3773.212471	259.351837	-210.957336	-754.455261
3773.215742	255.026901	-210.139099	-764.157227
3773.219031	250.292816	-209.379333	-772.982422
3773.222807	245.734085	-208.327301	-781.690796
3773.226349	240.883102	-207.041473	-790.808289
3773.229681	236.265930	-205.580353	-798.639954
3773.233023	230.596725	-203.593201	-807.815857
3773.236341	225.278214	-201.839874	-816.407349
3773.239678	219.258331	-200.028046	-824.998840
3773.243009	213.063126	-198.566925	-833.064270
3773.246337	206.751022	-196.287537	-840.720642
3773.249675	201.081833	-194.008179	-849.019897
3773.253012	194.711288	-192.196381	-856.559326
3773.256389	188.282303	-189.624756	-864.624756
3773.259675	181.210403	-187.170074	-872.047302
3773.263005	174.021637	-184.306244	-879.645203
3773.266764	167.183517	-181.851562	-886.307983
3773.270113	158.708954	-178.695496	-892.795471
3773.273433	151.344833	-175.188782	-899.750427
3773.276798	143.104034	-171.565155	-905.478088
3773.280094	135.447693	-167.766235	-910.971924
3773.283432	127.323792	-164.493286	-916.991760
3773.286784	119.199890	-159.934540	-921.725891
3773.290107	110.608414	-156.427826	-926.927551
3773.293470	101.607834	-152.804199	-931.836975
3773.296827	92.841034	-147.719452	-935.285156
3773.300545	84.191116	-143.686737	-938.908813
3773.303854	75.190536	-139.244873	-942.415466
3773.307186	66.306839	-134.861481	-945.220947
