time (s)	magX	magY	magZ
2026.870998	-259.233795	107.511398	-126.635300
2026.874330	-259.526031	107.452950	-127.161301
2026.877660	-259.818237	107.920517	-128.037994
2026.880994	-260.694916	108.504967	-128.739334
2026.884777	-261.513153	107.862061	-129.966675
2026.888138	-261.922272	108.680298	-130.258911
2026.891462	-262.272949	108.738747	-131.603165
2026.894759	-263.967865	109.206314	-133.005844
2026.898091	-264.435455	109.323196	-134.350082
2026.901418	-265.078339	109.264755	-135.402100
2026.904753	-265.954987	110.492111	-136.103439
2026.908089	-266.422577	110.316772	-137.564575
2026.911439	-267.591492	110.316772	-138.265930
2026.915193	-267.883698	110.433662	-138.791931
2026.918573	-268.701935	110.842781	-140.311508
2026.921954	-269.637054	110.784340	-140.954407
2026.925183	-270.338409	111.661018	-142.240204
2026.928510	-271.390411	112.011688	-143.818237
2026.931857	-272.325531	112.011688	-145.571594
2026.935190	-273.845123	112.713028	-146.798950
2026.938528	-274.254242	113.122154	-148.201630
2026.941902	-275.364716	113.531265	-150.247223
2026.945233	-276.767395	114.641731	-151.299240
2026.948574	-277.644073	115.050842	-152.877258
2026.952278	-278.754547	114.992401	-154.689056
2026.955644	-279.865021	115.635300	-156.267090
2026.959025	-280.975464	116.687317	-158.312683
2026.962334	-282.553497	117.505547	-160.007599
2026.965724	-283.605499	117.739326	-162.053177
2026.969010	-285.241974	118.499123	-164.274109
2026.972337	-286.118652	119.726479	-166.670364
2026.975635	-287.404449	120.486267	-169.767960
2026.979000	-289.040924	121.479836	-171.871994
2026.982341	-290.151398	121.772064	-173.566910
2026.985677	-291.203400	122.239624	-176.664520
2026.989402	-293.541229	123.583870	-179.645233
2026.992758	-294.885437	124.635887	-183.268845
2026.996040	-296.171265	125.220337	-186.132675
2026.999357	-298.450623	126.330795	-189.405609
2027.002641	-299.561066	127.324371	-192.269440
2027.005939	-301.723572	127.558151	-195.659256
2027.009710	-303.360046	128.610168	-199.516647
2027.012980	-305.171844	128.902405	-202.964920
2027.016292	-306.749878	129.837524	-206.939209
2027.019612	-308.970795	130.889542	-210.971939
2027.022877	-311.074799	131.707764	-214.069550
2027.026262	-313.003510	132.409119	-218.277603
2027.029581	-315.107544	133.578033	-222.485672
2027.032927	-316.919342	133.519577	-226.284637
2027.036655	-318.906494	134.863831	-231.252487
2027.039944	-321.185852	135.389832	-235.694321
2027.043244	-323.406799	136.324951	-239.902390
2027.046509	-325.218597	137.026306	-244.344254
2027.049849	-327.030396	137.786087	-249.604340
2027.053560	-328.725311	138.838104	-253.227936
2027.056799	-331.355377	139.656342	-258.078918
2027.060116	-333.284058	140.299240	-263.163666
2027.063379	-335.329620	141.351257	-267.254822
2027.067156	-337.024567	142.286377	-272.982483
2027.070438	-339.011688	142.520172	-278.710144
2027.073719	-340.940399	143.630615	-284.087097
2027.077032	-343.044434	144.916412	-289.639404
2027.080312	-344.914673	145.734650	-295.717712
2027.084062	-346.551147	146.436005	-301.445374
2027.087637	-349.064301	146.728241	-307.640594
2027.090980	-350.700775	148.306244	-313.426666
2027.094303	-352.278778	149.416718	-319.446533
2027.097684	-354.032166	150.293396	-326.459991
2027.100972	-356.194641	151.345413	-333.181183
2027.104306	-357.480438	151.929871	-339.902405
2027.107646	-359.526031	153.040329	-347.266510
2027.110973	-360.519592	154.793686	-354.338409
2027.114301	-363.091187	154.618347	-361.468750
2027.117634	-364.201660	155.553467	-369.241974
2027.120974	-365.312103	156.137939	-377.190552
2027.124336	-367.533020	157.423737	-386.541809
2027.128056	-367.883698	158.826416	-393.321472
2027.131395	-369.929260	159.235535	-402.205170
2027.134722	-371.156647	159.819992	-410.796631
2027.138089	-372.267120	159.936874	-420.323242
2027.141415	-373.202240	160.755112	-430.025146
2027.144744	-374.020477	160.755112	-440.194672
2027.148114	-375.189362	161.164230	-449.019867
2027.151392	-376.708954	161.631790	-458.546509
2027.154761	-377.936310	162.099365	-468.540619
2027.158493	-378.170074	161.748688	-478.710144
2027.161830	-378.403870	162.040909	-489.931641
2027.165164	-378.812988	161.748688	-501.094666
2027.168568	-378.812988	161.514908	-511.439514
2027.171902	-379.280518	160.755112	-522.368774
2027.175211	-379.222107	160.404434	-533.414978
2027.178500	-379.163666	160.287552	-544.344177
2027.181816	-378.228516	159.527756	-555.156616
2027.185148	-377.644073	158.826416	-567.137939
2027.188504	-376.884277	158.066620	-578.710083
2027.191834	-376.358276	157.599060	-589.931580
2027.195217	-374.663361	156.839279	-601.386902
2027.198576	-373.377563	156.021042	-613.251282
2027.202236	-370.981323	154.209229	-624.589722
2027.205597	-369.461731	153.507904	-636.921692
2027.208910	-366.890137	151.754517	-648.669189
2027.212320	-365.019897	150.410278	-660.124451
2027.215700	-362.272949	148.773819	-672.164246
2027.219021	-359.584473	147.195801	-684.437744
2027.222311	-356.603760	146.202209	-696.185303
2027.225651	-353.681488	144.448853	-708.224976
2027.229410	-349.473419	143.046173	-720.206299
2027.232653	-345.440674	141.585037	-731.427795
2027.235946	-340.881958	139.247223	-743.818237
2027.239224	-336.147888	136.792511	-756.734619
2027.242529	-331.706024	134.688477	-768.540588
2027.246341	-326.270599	132.467560	-781.106323
2027.249650	-320.601410	130.129745	-793.438293
2027.252991	-314.406219	127.207481	-805.244263
2027.256261	-307.801880	124.869667	-817.576294
2027.259568	-301.489777	121.713615	-829.849792
2027.262892	-294.534790	117.622437	-841.889526
2027.266196	-287.638245	114.933952	-854.396790
2027.269896	-279.689667	111.193451	-866.085876
2027.273195	-272.091766	107.862061	-877.541199
2027.276508	-264.084747	103.829346	-889.347168
2027.279844	-255.317947	99.621269	-900.685547
2027.283166	-246.200455	94.770309	-912.374634
2027.286496	-236.907669	90.854469	-922.485718
2027.289821	-227.965500	86.237289	-933.590271
2027.293121	-218.380478	81.853882	-943.701355
2027.296918	-208.327881	76.769135	-954.104614
2027.300195	-197.866150	71.567505	-964.274109
2027.303507	-188.047333	66.541199	-972.982483
2027.306795	-176.708923	61.105785	-982.450562
2027.310087	-166.481003	55.436584	-991.568054
2027.313469	-154.791931	50.176502	-999.633545
2027.317212	-143.570419	43.513733	-1007.231384
2027.320951	-131.589127	38.019871	-1013.718872
2027.324280	-120.016953	32.350670	-1020.615479
2027.327617	-108.737000	26.564581	-1027.219727
2027.330964	-96.463470	20.895382	-1032.713623
2027.334285	-84.073059	14.992403	-1038.441284
2027.337620	-71.624191	9.673874	-1042.766235
2027.340949	-59.993572	3.770893	-1047.149658
2027.344286	-47.544712	-2.073643	-1051.474609
2027.347615	-35.154293	-7.275280	-1053.403320
2027.350948	-22.296314	-13.645824	-1056.384033
2027.354321	-10.022797	-18.964355	-1057.436035
2027.357614	2.075394	-23.815315	-1058.721802
2027.360952	14.641148	-28.783165	-1060.358276
2027.364277	26.914671	-34.686150	-1060.475220
2027.367617	39.714203	-40.121567	-1059.832275
2027.370942	52.689072	-45.089424	-1059.481689
2027.374281	64.728813	-50.524841	-1057.669922
2027.377617	77.411453	-55.083580	-1055.974854
2027.380940	89.100525	-59.992989	-1053.403320
2027.384280	101.490944	-65.369957	-1051.006958
2027.388048	113.238464	-70.279366	-1047.558838
2027.391389	125.511978	-75.247223	-1043.175293
2027.394702	136.967270	-79.864403	-1038.675049
2027.398075	148.481003	-84.072472	-1034.525391
2027.401370	160.170074	-88.514320	-1028.447144
2027.404707	171.859146	-93.365288	-1022.134949
2027.408042	182.320862	-97.456459	-1015.589111
2027.411371	192.665695	-101.722969	-1008.809448
2027.414699	203.828766	-106.164818	-1000.802368
2027.418057	213.413803	-110.372887	-994.139648
2027.421402	223.232620	-113.996483	-985.080627
2027.425192	233.168320	-118.555229	-977.541199
2027.428455	241.993576	-122.821739	-969.008118
2027.431788	251.578598	-126.503792	-958.838623
2027.435125	260.403839	-130.010529	-949.370544
2027.438469	268.410889	-134.043243	-939.376343
2027.441830	277.002350	-137.082397	-928.330200
2027.445186	284.308014	-140.472229	-918.686768
2027.448544	291.263000	-143.920502	-906.939209
2027.451822	298.685547	-147.544128	-896.126831
2027.455562	305.757446	-149.823486	-885.372925
2027.458897	311.543518	-152.687317	-873.800720
2027.462280	317.738739	-155.901825	-861.644043
2027.465640	323.349487	-157.830505	-849.136719
2027.468965	329.603149	-160.168335	-838.733459
2027.472272	334.103424	-162.564575	-826.167725
2027.475602	339.012848	-164.259491	-814.361755
2027.478902	344.039154	-165.895966	-802.555786
2027.482302	348.773224	-167.649323	-791.217407
2027.485683	352.221497	-169.461151	-778.359436
2027.489391	355.494446	-170.454712	-767.137939
2027.492667	358.884247	-171.740479	-755.215027
2027.495992	362.215668	-173.260071	-744.285767
2027.499246	364.670380	-174.604340	-732.538269
2027.502944	367.884857	-174.954987	-720.790710
2027.506267	370.105774	-175.481018	-708.984802
2027.509548	372.268280	-176.708344	-697.997070
2027.512813	374.313843	-176.883698	-686.950867
2027.516170	376.359436	-177.234375	-675.086487
2027.519438	377.528320	-177.643463	-663.105164
2027.523156	379.223236	-177.877258	-651.533020
2027.526470	379.749268	-178.052612	-640.895935
2027.529749	381.093506	-178.461731	-630.258911
2027.533094	381.619507	-178.520172	-618.862000
2027.536369	382.846863	-178.344818	-607.523682
2027.539726	383.665100	-178.637054	-596.886597
2027.543443	384.717133	-178.461731	-587.126221
2027.546822	384.249573	-177.935699	-575.437134
2027.550088	384.132660	-178.344818	-564.624756
2027.553376	384.308014	-177.877258	-555.390381
2027.556710	383.723541	-177.994171	-544.110474
2027.559991	383.840424	-177.526611	-533.999390
2027.563763	383.139069	-177.175903	-524.765015
2027.567049	382.729980	-177.234375	-514.127991
2027.570328	382.437744	-177.117462	-504.776764
2027.573643	380.684387	-176.182343	-495.367065
2027.576969	379.807709	-176.299255	-485.139130
2027.580231	378.755676	-175.656342	-475.437164
2027.584042	377.294556	-175.247223	-467.371704
2027.587591	376.534760	-175.422546	-458.078918
2027.590923	375.073639	-174.545898	-449.078339
2027.594253	373.612488	-173.844543	-441.831116
2027.597592	372.385132	-173.084747	-432.655182
2027.600924	371.216248	-172.383423	-424.589722
2027.604249	369.521332	-172.909424	-416.056671
2027.607593	367.300415	-171.798950	-408.575714
2027.610933	366.306824	-170.980713	-401.386902
2027.614259	364.436584	-170.688507	-393.204559
2027.617588	362.975433	-169.928711	-387.184692
2027.620961	360.754517	-168.876678	-380.229706
2027.624253	359.176483	-168.116882	-373.391571
2027.627592	357.949127	-168.233795	-366.670380
2027.630916	355.845123	-167.006439	-360.942719
2027.634278	354.208618	-166.655762	-355.273529
2027.637590	352.104614	-165.779083	-348.727661
2027.641343	350.351257	-165.486847	-343.526001
2027.644680	348.890106	-163.733490	-337.097015
2027.648013	347.487427	-163.149017	-332.479828
2027.651359	345.441833	-161.746338	-326.635315
2027.654697	343.220917	-161.512573	-321.141449
2027.658081	341.233765	-160.285217	-316.582703
2027.661339	340.123322	-160.168335	-311.497955
2027.664709	338.486847	-158.590302	-307.056122
2027.668012	337.201050	-157.772064	-302.146698
2027.671771	335.447693	-157.129181	-297.295746
2027.675117	333.460541	-156.252472	-293.438354
2027.678488	331.940948	-155.726501	-289.054932
2027.681850	330.129150	-155.200470	-284.379333
2027.685166	328.258911	-154.440674	-280.521912
2027.688424	326.563995	-153.330200	-276.372314
2027.691777	325.102844	-151.927521	-272.047363
2027.695096	323.641724	-151.810638	-268.131500
2027.698451	321.713013	-150.817078	-264.332550
2027.701782	320.018127	-150.407959	-259.949158
2027.705159	318.556976	-149.589722	-256.325562
2027.708557	316.803619	-148.888367	-253.637039
2027.712219	315.634705	-148.187012	-250.948563
2027.715558	314.173584	-147.661011	-245.922272
2027.718866	312.595551	-147.427246	-243.409119
2027.722305	310.666840	-146.901245	-240.837509
2027.725667	309.088806	-146.199890	-237.038574
2027.728939	307.393890	-145.790771	-235.168320
2027.732236	306.809479	-145.323212	-231.310928
2027.735566	305.406769	-144.329620	-228.797775
2027.738914	303.887207	-144.037415	-225.817078
2027.742267	302.367615	-143.452942	-223.420792
2027.745601	300.848022	-143.102295	-221.024551
2027.749405	299.971375	-142.751617	-217.751617
2027.752667	298.568665	-142.459381	-216.232025
2027.756032	297.925751	-142.634735	-214.186447
2027.759313	296.756866	-142.459381	-212.374634
2027.762610	295.354187	-141.115143	-210.387497
2027.765956	295.178833	-141.056702	-208.809464
2027.769260	293.600830	-140.881348	-207.465225
2027.773089	292.490356	-140.413788	-204.542953
2027.776399	291.613678	-140.004669	-203.198715
2027.779676	290.444763	-139.829346	-202.789597
2027.782994	290.094086	-139.420227	-200.802444
2027.786267	289.743439	-139.537109	-200.159546
2027.790016	288.749847	-138.777313	-198.055511
2027.793324	287.697845	-138.309753	-197.412628
2027.796596	287.230286	-138.718872	-196.594376
2027.799872	286.236694	-137.900635	-195.600815
2027.803171	285.944458	-138.309753	-194.548798
2027.806917	285.827576	-137.374634	-192.561646
2027.810203	284.892456	-137.608429	-192.152542
2027.813530	284.892456	-137.199310	-192.620102
2027.816851	284.074219	-136.147278	-191.392746
2027.820190	284.249573	-136.556396	-191.275864
2027.823473	284.074219	-136.264191	-189.990051
2027.826806	283.489777	-135.971954	-188.762711
2027.830092	283.665100	-135.855072	-187.418457
2027.833798	283.080658	-136.030396	-188.295151
2027.837117	282.729980	-135.796600	-187.126236
2027.840404	282.846893	-135.445923	-186.424896
2027.843738	282.320862	-135.504395	-186.366455
2027.847018	282.203949	-135.270599	-185.840439
2027.850330	282.028625	-135.212158	-185.957336
2027.853687	281.444183	-135.679718	-184.496201
2027.857426	281.502625	-135.855072	-185.255997
2027.860902	281.385742	-135.679718	-184.963760
2027.864230	281.502625	-135.679718	-185.840439
2027.867565	281.327301	-136.965515	-185.255997
2027.870899	281.619537	-136.673279	-184.671539
2027.874231	281.268829	-136.673279	-184.671539
2027.877564	281.035065	-136.731750	-184.846863
2027.880895	280.918182	-137.316193	-185.723557
2027.884249	280.976593	-137.433075	-186.074219
2027.887559	281.794861	-137.433075	-186.074219
2027.890894	281.794861	-137.900635	-187.126236
2027.894227	281.970184	-138.543549	-187.476913
2027.898002	282.554657	-138.660431	-188.528931
2027.901326	282.671539	-138.485107	-188.938049
2027.904661	283.372894	-138.660431	-189.814728
2027.907988	283.314453	-139.127991	-191.100525
2027.911314	283.665100	-139.303345	-191.626526
2027.914668	284.541779	-139.946228	-192.970779
2027.917986	284.950897	-139.653992	-194.081238
2027.921323	285.184692	-140.121552	-195.133255
2027.924665	286.236694	-140.647583	-196.828171
2027.928030	286.996490	-141.407379	-198.347748
2027.931841	287.580933	-141.407379	-200.101105
2027.935075	288.516083	-141.991821	-201.796021
2027.938404	289.451202	-142.926941	-203.198715
2027.941741	290.327881	-143.043823	-205.068954
2027.945089	291.087677	-144.037415	-206.997650
2027.948423	292.139679	-143.686737	-208.926361
2027.951819	293.659271	-144.037415	-210.796600
2027.955133	294.243713	-144.271179	-213.251312
2027.958470	295.471069	-145.206329	-215.004669
2027.961732	295.997070	-145.440094	-217.108719
2027.965518	296.815308	-145.966095	-218.745178
2027.968906	297.691986	-146.550568	-221.082993
2027.972269	299.620667	-146.901245	-223.479263
2027.975651	301.023346	-148.011688	-225.992401
2027.978927	301.900055	-147.836365	-228.505554
2027.982230	302.952057	-148.362366	-231.135590
2027.985545	303.419647	-149.180603	-233.122742
2027.988897	305.114563	-150.291046	-235.694321
2027.992264	306.225006	-150.933960	-238.265930
2027.995585	307.452362	-151.401520	-241.305084
2027.998866	308.855042	-152.044434	-243.642899
2028.002231	310.257751	-152.979553	-246.915833
2028.005995	311.075958	-153.447113	-250.130325
2028.009246	312.829315	-154.732910	-252.585037
2028.012541	314.348907	-155.668030	-255.624191
2028.015821	315.108704	-156.895386	-258.955597
2028.019124	316.336060	-157.304504	-262.228546
2028.022843	317.738739	-158.005829	-265.676819
2028.026142	319.199860	-159.291626	-269.767975
2028.029418	320.777893	-160.051422	-272.281128
2028.032712	322.063690	-160.986542	-277.891876
2028.036016	323.407928	-162.038574	-281.632385
2028.039751	325.278168	-163.324371	-285.782013
2028.043031	326.739319	-164.025726	-290.223877
2028.046336	327.966675	-164.960846	-295.074829
2028.049678	330.129150	-165.662170	-299.341339
2028.053007	331.765625	-166.772644	-304.484528
2028.056287	333.460541	-167.883118	-309.803070
2028.059645	335.155457	-168.233795	-315.413818
2028.063339	336.733490	-169.753357	-320.790771
2028.066612	338.779053	-170.863831	-326.284637
2028.069930	339.655762	-171.565155	-331.836945
2028.073196	341.526001	-172.266510	-337.389252
2028.076536	343.571594	-173.260071	-344.461121
2028.080270	345.500275	-173.844543	-350.890137
2028.083593	347.078308	-175.481018	-356.910004
2028.086883	348.890106	-176.182343	-363.923462
2028.090139	350.585022	-176.942139	-369.884888
2028.093448	351.929291	-177.760376	-377.891876
2028.097171	353.565735	-178.403259	-384.320892
2028.100877	355.786682	-179.747528	-391.977203
2028.104207	357.014008	-180.215088	-398.230865
2028.107543	358.358246	-181.559326	-405.887207
2028.110876	360.111603	-183.020447	-413.017548
2028.114247	361.222076	-183.780243	-420.849243
2028.117540	362.390991	-184.481567	-427.570435
2028.120881	363.910583	-185.475159	-435.635895
2028.124207	365.488586	-186.644073	-442.941559
2028.127538	366.306824	-187.345428	-451.182373
2028.130867	367.358856	-188.806549	-460.007629
2028.134196	368.703094	-189.332550	-467.430176
2028.137542	369.930420	-190.384552	-476.547638
2028.140872	370.222656	-191.436584	-485.256012
2028.144200	371.216248	-192.079468	-493.613678
2028.147530	371.742249	-193.014618	-504.016968
2028.150863	372.209808	-193.540619	-512.491516
2028.154656	372.326691	-193.891296	-521.725891
2028.157967	372.677368	-195.118652	-530.784912
2028.161289	372.969604	-195.878448	-540.428345
2028.164653	373.261841	-196.346008	-550.422546
2028.167964	373.904724	-196.988892	-560.007568
2028.171292	373.378723	-197.748688	-570.118652
2028.174619	373.086487	-198.333130	-580.288086
2028.177956	372.911163	-198.976044	-590.866760
2028.181284	373.086487	-199.151367	-601.386902
2028.184644	371.917572	-199.969604	-613.835754
2028.187982	371.333130	-200.378723	-624.355896
2028.191783	370.397980	-200.144928	-635.460510
2028.195075	368.878418	-200.495605	-647.500244
2028.198383	368.001740	-200.670959	-658.721802
2028.201743	366.715942	-200.670959	-669.066589
2028.205063	364.495026	-199.852722	-681.457031
2028.208431	362.449432	-200.144928	-694.490356
2028.211812	360.579163	-199.268280	-705.945618
2028.215133	358.533600	-199.326721	-718.511353
2028.218396	355.728210	-198.508484	-729.382202
2028.221717	353.215057	-197.690247	-740.720642
2028.225061	349.474579	-196.872009	-753.578613
2028.228871	346.435394	-195.995300	-764.449402
2028.232198	342.519562	-195.469330	-776.839844
2028.235176	338.779053	-194.417297	-789.113342
2028.238872	334.804779	-193.657501	-801.211548
2028.242138	330.362946	-192.254822	-812.666870
2028.245529	325.979523	-191.319702	-824.531250
2028.248875	321.128571	-189.800140	-836.044983
2028.252229	316.102264	-188.455872	-846.448303
2028.255560	311.075958	-186.468719	-858.955566
2028.258859	305.172974	-184.890717	-869.592651
2028.262576	298.919342	-183.020447	-881.047913
2028.265991	293.250122	-181.500885	-890.925171
2028.269236	286.879578	-179.513733	-901.971313
2028.272524	280.625946	-177.994171	-912.257751
