time (s)	magX	magY	magZ
5709.288040	-103.593811	8.972530	-783.853271
5709.291418	-97.749252	5.173580	-787.126221
5709.294738	-91.378708	1.199299	-789.639343
5709.298003	-85.709534	-2.307423	-792.795471
5709.301285	-79.689651	-6.515488	-795.425476
5709.305039	-73.026871	-10.665108	-798.406189
5709.308323	-66.831680	-14.580948	-800.743958
5709.311634	-60.928699	-18.496788	-801.679138
5709.314910	-54.090588	-22.295731	-804.426086
5709.318197	-48.070721	-26.912918	-806.004089
5709.321498	-41.291058	-30.244301	-807.874329
5709.325271	-34.803623	-34.335480	-808.692566
5709.328535	-28.783749	-37.549973	-809.744568
5709.331812	-22.471653	-41.699593	-810.329041
5709.335064	-16.159554	-45.440094	-812.140808
5709.338370	-9.029221	-48.479256	-812.023926
5709.342126	-2.249561	-52.745758	-812.374634
5709.345383	3.419636	-56.252487	-812.257751
5709.348667	9.556400	-59.350090	-812.140808
5709.351947	16.336061	-62.973701	-812.433044
5709.355231	22.414379	-67.473991	-811.205688
5709.359001	28.843367	-70.513145	-810.504333
5709.362712	35.155464	-74.312096	-809.043213
5709.366045	41.000000	-77.818817	-807.406799
5709.369373	47.662773	-81.676216	-806.530090
5709.372703	53.974869	-85.416725	-804.542969
5709.376039	60.170074	-89.098778	-802.672668
5709.379401	66.073059	-91.495033	-800.510193
5709.382718	72.326706	-95.469322	-798.230835
5709.386040	77.820572	-98.333138	-795.951477
5709.389371	83.606659	-101.898308	-793.263000
5709.392715	89.626541	-104.762138	-790.516052
5709.396039	94.477493	-107.976616	-787.360046
5709.399378	99.679138	-111.600243	-783.677917
5709.402711	105.465225	-114.990059	-780.463440
5709.406037	111.075974	-117.795433	-776.722900
5709.409374	116.569839	-120.951500	-773.040894
5709.412705	122.180603	-124.633553	-768.832825
5709.416042	126.447098	-127.088249	-765.267700
5709.419368	131.824081	-130.010529	-761.118042
5709.422708	136.382812	-132.114563	-757.260620
5709.426479	141.526001	-135.329041	-751.591492
5709.429807	146.260086	-138.134430	-747.208069
5709.433136	150.701935	-140.530701	-742.006409
5709.436465	155.260666	-143.043823	-737.622986
5709.439793	159.468735	-145.556976	-732.421387
5709.443124	164.611923	-147.894806	-727.044434
5709.446465	168.644653	-150.232605	-722.485657
5709.449790	172.969604	-152.219757	-717.167114
5709.453142	176.827011	-154.966705	-710.329041
5709.456462	180.625946	-156.661621	-705.010498
5709.459839	184.424896	-158.298065	-700.217957
5709.463601	188.340744	-160.343658	-693.672119
5709.466982	191.496780	-162.038574	-688.353577
5709.470217	195.471069	-163.382812	-682.625916
5709.473540	198.334900	-165.077728	-676.080078
5709.476872	201.841614	-166.772644	-670.995300
5709.480229	205.406784	-168.818237	-664.449402
5709.483588	207.569260	-169.753357	-658.312683
5709.486948	210.549973	-171.448273	-651.649902
5709.490287	213.647583	-171.915863	-646.448242
5709.493537	216.336075	-173.610779	-640.311523
5709.496902	219.082993	-175.071899	-634.642273
5709.500646	221.187027	-175.247223	-628.914673
5709.504085	223.407959	-176.825256	-622.193481
5709.507391	225.921097	-177.643463	-616.874878
5709.510729	228.434250	-178.695496	-610.445923
5709.513995	230.538284	-180.098175	-603.549377
5709.517318	231.882538	-180.682648	-597.821716
5709.520700	234.103455	-181.384003	-592.152527
5709.524045	235.506134	-181.793091	-585.898865
5709.527400	238.194626	-182.669800	-579.937439
5709.530708	239.305084	-183.663361	-573.917542
5709.534471	240.123337	-184.072479	-567.956116
5709.537790	241.584457	-185.241364	-562.228516
5709.541055	243.104034	-185.825836	-556.442444
5709.544333	244.506729	-186.585632	-550.188782
5709.547578	245.324951	-186.936279	-544.578003
5709.550897	246.610764	-187.462311	-538.967224
5709.554650	247.545898	-188.163635	-533.005859
5709.557949	248.305664	-187.988312	-527.453552
5709.561237	249.123917	-188.981873	-521.141418
5709.564518	250.175919	-188.981873	-515.004700
5709.567827	250.818832	-189.215668	-509.335480
5709.571552	251.111038	-189.566345	-503.724731
5709.574834	251.870834	-189.858551	-498.289307
5709.578153	252.221527	-189.507904	-492.620148
5709.581442	253.273514	-189.683228	-486.541809
5709.584726	253.857986	-190.150787	-480.288116
5709.588032	253.974869	-190.326111	-476.080078
5709.591785	254.091766	-190.793701	-471.112213
5709.595055	254.267105	-190.443024	-465.384583
5709.598376	254.500870	-190.209229	-460.942749
5709.601682	255.085342	-190.033905	-454.922882
5709.605027	255.319122	-190.501465	-450.597900
5709.608359	255.436005	-189.566345	-446.272949
5709.611654	255.260666	-189.741669	-440.895996
5709.615374	255.903564	-189.157196	-436.454102
5709.618682	256.020447	-189.390991	-431.836945
5709.621948	255.436005	-189.449432	-426.459991
5709.625292	255.786697	-189.449432	-422.544159
5709.628548	255.786697	-188.514313	-418.920532
5709.632256	255.494461	-188.514313	-414.361755
5709.636012	255.786697	-188.105194	-409.919922
5709.639390	255.728226	-188.338989	-405.770325
5709.642677	255.728226	-187.988312	-402.322021
5709.646010	255.026901	-187.462311	-398.464661
5709.649345	254.910004	-187.053192	-395.074829
5709.652685	255.202225	-186.760956	-390.340729
5709.656014	255.436005	-187.520752	-387.009369
5709.659348	254.267105	-186.410278	-384.087097
5709.662682	254.267105	-186.410278	-379.879028
5709.666014	253.624207	-185.767395	-376.722992
5709.669349	253.390411	-186.293396	-373.333160
5709.672679	252.922852	-186.059631	-369.826447
5709.676015	253.273514	-186.059631	-366.787262
5709.679347	251.753952	-185.650513	-363.338989
5709.682713	251.812393	-185.358276	-361.118073
5709.686008	251.403275	-185.007599	-357.319122
5709.689346	251.695496	-185.066040	-354.338409
5709.692679	250.585037	-184.540039	-352.000610
5709.696031	250.351273	-185.241364	-348.435425
5709.699343	249.942139	-184.423157	-345.396271
5709.703096	249.708359	-183.955566	-343.058441
5709.706437	248.714798	-183.780243	-339.376404
5709.709778	249.007019	-183.838684	-337.447693
5709.713102	248.597900	-183.137360	-335.343689
5709.716454	248.364120	-182.962006	-332.246063
5709.719786	248.188797	-182.786682	-330.901825
5709.723110	247.253662	-182.143768	-327.628876
5709.726472	246.493881	-182.260651	-325.291077
5709.729770	246.143204	-182.085327	-322.836365
5709.733097	246.844543	-181.734650	-320.557007
5709.736429	245.208084	-181.734650	-319.037415
5709.740227	245.091187	-181.968445	-317.400940
5709.743534	244.565170	-181.150208	-315.355347
5709.746940	244.272949	-180.799530	-313.017548
5709.750257	244.448273	-180.624207	-311.790192
5709.753603	243.863831	-180.565735	-309.978394
5709.756850	243.688492	-180.273529	-308.517242
5709.760190	243.571594	-180.273529	-306.763885
5709.763525	243.454697	-179.338379	-305.185883
5709.766863	242.461136	-179.572174	-303.958527
5709.770290	242.461136	-179.396851	-302.731171
5709.773614	241.467575	-179.689087	-301.796021
5709.776913	242.227356	-179.221527	-300.627136
5709.780614	241.584457	-179.104614	-299.692017
5709.784000	241.409119	-178.461731	-298.756897
5709.787386	241.759796	-178.403259	-297.821777
5709.790679	240.590897	-178.637054	-296.594421
5709.794021	240.181763	-178.520172	-295.893066
5709.797374	239.421982	-178.578613	-294.490356
5709.800701	239.655762	-178.870819	-293.847473
5709.803985	239.071304	-178.987732	-293.379913
5709.807334	239.305084	-178.695496	-292.737000
5709.810696	239.012863	-178.753967	-292.094116
5709.814055	238.545303	-178.987732	-291.568085
5709.817763	238.895981	-178.637054	-291.801880
5709.821086	238.603745	-178.578613	-290.925201
5709.824331	238.428406	-179.221527	-290.749878
5709.827633	237.843948	-179.046173	-290.749878
5709.830908	238.194626	-178.929291	-290.048523
5709.834654	237.493286	-179.163055	-289.113403
5709.837989	237.727066	-179.455292	-289.347168
5709.841293	237.025726	-179.572174	-289.054932
5709.844577	237.317947	-179.513733	-288.470490
5709.847920	237.142609	-179.922852	-289.288727
5709.851190	237.084167	-179.864410	-289.405609
5709.854983	237.084167	-179.689087	-288.938049
5709.858229	236.850388	-180.565735	-288.645844
5709.861545	236.616608	-180.448853	-289.171844
5709.864815	236.441269	-180.565735	-289.171844
5709.868061	236.499710	-180.331970	-290.223877
5709.871810	236.499710	-180.565735	-290.165405
5709.875133	236.382828	-181.150208	-290.808289
5709.878404	236.441269	-181.150208	-290.749878
5709.881705	236.441269	-181.267090	-291.568085
5709.884978	236.558167	-182.143768	-292.386353
5709.888322	236.616608	-181.734650	-292.912354
5709.892064	237.376389	-181.500885	-293.555237
5709.895375	237.259506	-181.851562	-294.899506
5709.898634	237.902405	-183.078888	-295.191711
5709.901904	237.493286	-182.786682	-296.068390
5709.905213	237.610168	-182.728241	-297.821777
5709.908966	238.136185	-183.429596	-298.581543
5709.912655	237.843948	-183.721802	-300.451782
5709.915986	238.194626	-183.897156	-301.620697
5709.919318	237.960846	-183.780243	-303.023376
5709.922659	238.779083	-184.423157	-304.075409
5709.926035	239.071304	-185.241364	-304.893646
5709.929318	238.253082	-185.416718	-306.939240
5709.932672	238.428406	-185.884277	-308.867950
5709.935990	238.720642	-185.942719	-310.212158
5709.939315	239.012863	-186.176483	-312.842194
5709.942649	239.129761	-187.053192	-313.660431
5709.945987	239.363541	-187.520752	-315.764465
5709.949316	239.714203	-187.754517	-316.991821
5709.952652	239.538864	-187.929871	-319.914093
5709.955983	240.181763	-188.748108	-321.375244
5709.959315	240.006439	-188.923431	-324.122162
5709.962653	240.006439	-189.332550	-326.518433
5709.965985	240.473999	-190.033905	-328.271759
5709.969339	240.357117	-190.618347	-331.603180
5709.972644	240.298660	-191.319702	-333.005859
5709.975988	240.415543	-192.079468	-334.583893
5709.979761	240.532440	-192.196381	-337.564606
5709.983132	240.473999	-192.722382	-340.194641
5709.986401	240.590897	-193.189941	-342.298676
5709.989742	240.473999	-193.891296	-345.396271
5709.993088	240.941559	-194.125061	-348.026306
5709.996404	240.590897	-194.475739	-350.597900
5709.999738	240.941559	-195.586212	-353.987732
5710.003065	241.116898	-195.235535	-356.267090
5710.006405	241.409119	-196.813568	-358.780273
5710.009759	241.642899	-197.164246	-361.877838
5710.013120	241.292236	-197.398010	-365.033905
5710.016494	241.526016	-198.274689	-368.715973
5710.020165	241.701355	-197.924011	-371.521332
5710.023494	241.526016	-198.566925	-375.320282
5710.026826	241.642899	-199.209808	-378.651672
5710.030183	242.227356	-200.378723	-382.041504
5710.033516	242.285797	-200.437164	-386.834015
5710.036890	242.110458	-200.437164	-390.340729
5710.040233	242.168915	-201.839874	-394.315033
5710.043501	241.818237	-202.307434	-398.639984
5710.046813	241.701355	-201.547638	-402.731171
5710.050593	241.701355	-203.067200	-406.880798
5710.054007	241.701355	-202.716553	-410.855072
5710.057342	241.993576	-203.476349	-414.537140
5710.060661	242.168915	-204.119232	-418.686737
5710.063947	241.526016	-204.820557	-423.654602
5710.067270	241.116898	-204.528351	-427.511993
5710.070591	241.292236	-205.755707	-432.421417
5710.073984	240.590897	-206.106354	-437.564606
5710.077370	240.298660	-206.340149	-441.831116
5710.080659	240.006439	-207.099945	-447.324951
5710.083921	239.071304	-207.567505	-451.123901
5710.087303	239.012863	-207.742828	-457.085327
5710.091072	238.253082	-208.268829	-461.819427
5710.094369	237.317947	-208.794861	-466.787292
5710.097650	237.259506	-209.437744	-471.462921
5710.100949	236.382828	-209.028625	-476.196960
5710.104208	235.330811	-209.963745	-482.216827
5710.107548	234.571014	-210.489777	-486.366455
5710.111291	233.752792	-210.080658	-491.860352
5710.114550	232.876099	-210.898865	-498.464630
5710.117905	232.057861	-211.424896	-503.958527
5710.121206	231.414978	-211.834015	-508.692596
5710.124567	230.187622	-212.126221	-514.186401
5710.127841	228.843384	-211.600220	-520.381653
5710.131500	227.440689	-212.067810	-524.589722
5710.134831	225.395096	-212.243134	-530.726440
5710.138126	224.459961	-212.769135	-536.629456
5710.141458	222.940399	-212.535370	-541.714172
5710.144750	222.005264	-212.944458	-547.617187
5710.148034	219.784348	-212.593781	-553.578613
5710.151765	217.738754	-212.126221	-560.299805
5710.155100	216.745178	-212.243134	-565.793701
5710.158365	214.524261	-211.950897	-571.930420
5710.161636	212.887787	-211.366425	-577.774963
5710.164922	211.017532	-211.366425	-583.327271
5710.168608	208.971954	-210.431305	-589.756287
5710.171902	207.101700	-210.372864	-596.302124
5710.175221	205.523682	-209.846863	-601.854431
5710.178517	202.601410	-208.911774	-607.874329
5710.181790	199.854477	-208.444183	-614.887756
5710.185507	197.692001	-208.444183	-620.966064
5710.188805	194.886627	-207.742828	-627.278137
5710.192125	192.315033	-206.807709	-633.590271
5710.195373	189.451202	-206.340149	-639.084106
5710.198682	187.113388	-205.288116	-644.636475
5710.202404	183.898895	-204.703674	-650.364075
5710.205954	181.210403	-202.891876	-657.611267
5710.209294	177.762131	-202.424316	-663.514282
5710.212622	174.722977	-200.670959	-669.884827
5710.215956	170.748688	-200.320282	-675.846252
5710.219291	166.949738	-198.976044	-682.041504
5710.222628	163.326126	-198.040924	-688.119812
5710.225957	159.585632	-196.579773	-693.321411
5710.229308	155.728226	-195.410889	-698.347717
5710.232616	151.812393	-193.949738	-703.257141
5710.235959	147.779663	-192.780823	-709.277039
5710.239293	143.337814	-191.495056	-714.244873
5710.242623	138.603745	-189.916992	-719.972473
5710.245952	134.454117	-188.514313	-725.115723
5710.249284	130.304504	-186.118073	-729.323792
5710.252627	125.336639	-184.481567	-734.233154
5710.256373	120.719467	-182.962006	-738.499695
5710.259722	116.628296	-180.974884	-743.058411
5710.263044	111.368210	-179.396851	-748.084717
5710.266396	106.400352	-177.117462	-752.000549
5710.269716	101.081825	-174.779663	-756.383972
5710.273094	95.997078	-173.084747	-760.299805
5710.276371	90.795441	-170.630035	-764.800110
5710.279728	85.827591	-167.766235	-767.956116
5710.283065	80.333725	-165.486847	-772.164246
5710.286401	74.255409	-163.441254	-775.261780
5710.290136	69.345993	-160.402100	-778.184082
5710.293466	64.319695	-157.304504	-781.398560
5710.296814	58.182934	-154.674469	-784.963745
5710.300150	52.455292	-151.343079	-787.944458
5710.303480	47.195210	-149.239044	-789.873169
5710.306916	40.123322	-145.849213	-792.503174
5710.310194	34.921684	-143.160706	-794.899414
5710.313468	28.200468	-139.770905	-797.354126
5710.316826	22.531269	-136.439514	-799.516663
5710.320134	16.452953	-133.283447	-800.217957
5710.323479	10.199299	-129.192291	-802.263550
5710.327300	4.237877	-125.218010	-803.724670
5710.330619	-2.074223	-122.120399	-804.952087
5710.333965	-7.684975	-118.789009	-805.419617
5710.337264	-13.880188	-115.106956	-806.763855
5710.340639	-20.250729	-111.074226	-806.354736
5710.343979	-27.088833	-107.625938	-806.705383
5710.347296	-33.517826	-104.236122	-806.354736
5710.350679	-39.420811	-100.086510	-806.004089
5710.353948	-45.323780	-96.404442	-805.127380
5710.357234	-52.161892	-93.014610	-804.542969
5710.360667	-58.298656	-88.397423	-803.374023
5710.363955	-64.435410	-86.293388	-801.912903
5710.367734	-70.630630	-82.260658	-799.808838
5710.370996	-77.410294	-78.870842	-798.581543
5710.374272	-83.313263	-74.896561	-797.061951
5710.377614	-89.800690	-70.630043	-795.016357
5710.380972	-95.236115	-66.772644	-793.379822
5710.384248	-101.139099	-62.973701	-790.808289
5710.387983	-107.451187	-59.700760	-788.412048
5710.391342	-112.886612	-55.375809	-785.489746
5710.394647	-119.023376	-52.161308	-782.275269
5710.397945	-124.809464	-48.187027	-779.236084
5710.401217	-130.244873	-45.206314	-775.963196
5710.404487	-135.738739	-40.881355	-772.924011
5710.408264	-141.524826	-37.140854	-769.241943
5710.411543	-146.901810	-33.575684	-764.858582
5710.414821	-152.570999	-29.893631	-760.767395
5710.418088	-157.597321	-26.445358	-757.026855
5710.421370	-162.857376	-22.354179	-752.818787
5710.425136	-167.649902	-18.964355	-749.136780
5710.428434	-173.026886	-15.399185	-744.753357
5710.431716	-177.644058	-11.834015	-739.960815
5710.434995	-182.495041	-7.742844	-735.869690
5710.438278	-186.819977	-4.820576	-730.726440
5710.441568	-191.554062	-0.846291	-726.343018
5710.445323	-195.469894	2.777321	-722.076538
5710.448591	-199.970184	6.810051	-717.225586
5710.451867	-204.061356	10.550552	-711.673279
5710.455119	-208.210983	14.349503	-706.471680
5710.458820	-212.243729	16.979544	-700.101135
5710.462170	-216.217972	21.070717	-694.957886
5710.465936	-219.607834	24.402103	-688.938049
5710.469268	-223.406784	27.032145	-683.151917
5710.472602	-228.023941	30.947983	-677.424316
5710.475932	-230.887772	33.753357	-671.813538
5710.479266	-234.745193	36.850964	-665.618347
5710.482610	-237.550552	40.123901	-660.182922
5710.485933	-240.706589	43.163063	-654.864380
5710.489301	-244.330215	45.734657	-648.435364
5710.492595	-247.018723	49.066044	-641.421936
5710.495948	-249.824081	51.696083	-636.220337
5710.499260	-252.454117	54.735241	-630.200439
5710.502597	-255.668594	57.365280	-624.823486
5710.505925	-258.064911	59.469315	-618.452942
5710.509262	-260.402710	62.333138	-612.666870
5710.512594	-262.740509	64.203384	-605.945618
5710.515929	-264.961426	66.891876	-600.510193
5710.519260	-267.474579	68.820572	-594.548767
5710.522594	-269.344849	70.807709	-589.522461
5710.525933	-271.507324	72.736412	-583.093445
5710.529704	-273.377563	74.723557	-576.196960
5710.533042	-275.189392	76.710693	-570.586182
5710.536365	-276.942749	78.697838	-564.507874
5710.539705	-278.754547	80.217415	-558.955566
5710.543015	-280.157227	82.672119	-552.877258
5710.546354	-281.092377	83.724136	-547.091187
5710.549671	-282.436584	85.828171	-541.188171
5710.553024	-283.897736	87.406197	-535.168274
5710.556338	-284.891296	88.633545	-529.966675
5710.559675	-286.352417	89.977791	-523.829895
5710.563516	-286.995331	92.374054	-518.452942
5710.566843	-288.047333	93.367615	-512.842224
5710.570146	-288.456482	95.062531	-506.763885
5710.573438	-288.924042	96.991234	-501.562256
5710.576813	-289.917603	98.277031	-496.419037
5710.580110	-290.969604	99.387489	-489.931641
5710.583472	-291.787842	101.374634	-485.256012
5710.586841	-292.021637	102.192871	-479.294586
5710.590166	-292.547638	103.537109	-474.151367
5710.593503	-292.430756	104.764465	-469.358887
5710.597200	-292.664520	105.933372	-464.741669
5710.600535	-293.190521	106.810051	-458.897156
5710.603926	-293.307434	108.797195	-453.753937
5710.607253	-294.008789	109.089417	-448.026337
5710.610608	-293.774994	110.141434	-444.168915
5710.613923	-294.359467	111.661018	-439.201080
5710.617217	-294.184113	112.187027	-434.291656
5710.620547	-294.067230	113.063705	-429.791351
5710.623938	-294.359467	113.881935	-425.758636
5710.627306	-294.534790	114.758621	-420.323242
5710.630626	-294.125671	114.817062	-416.465820
5710.634345	-293.891876	116.161308	-411.614838
5710.637657	-293.716553	116.687317	-406.997681
5710.640993	-293.599670	117.096436	-403.140289
5710.644309	-293.073669	117.797775	-399.049103
5710.647584	-293.190521	118.382233	-395.016388
5710.650851	-293.307434	118.732903	-391.801880
5710.654612	-292.547638	118.849792	-388.002930
5710.657881	-292.489197	119.317360	-383.444183
5710.661171	-292.372314	119.609589	-379.995911
5710.664474	-292.080078	119.726479	-377.073639
5710.667749	-291.787842	120.603157	-373.216248
5710.671041	-290.735840	120.544716	-368.774414
5710.674798	-290.560486	121.012276	-365.793701
5710.678074	-291.086517	121.012276	-362.696106
5710.681343	-290.443604	120.953827	-359.130920
5710.684630	-289.625366	121.304497	-355.624207
5710.687903	-289.216248	122.298073	-352.935730
5710.691624	-288.865601	122.239624	-350.013458
5710.694930	-288.222687	122.414963	-346.214508
